-0.031609584778228
0.395083720944840
1.373303262051395
2.762922314284411
3.908983817349895
4.379225310155723
4.318732028742160
4.134500057215408
4.058363917718265
4.069312686358049
4.074740799272635
4.042593263586710
3.993452839572440
3.947703651209265
3.907677605057923
3.869599477722011
3.832534448952137
3.796633098680080
3.760937302612570
3.725199496959469
3.690973336604080
3.659085670220525
3.627289094382495
3.591840194601472
3.551576548554003
3.509986622480898
3.472370258064518
3.440553783032076
3.410657738099637
3.376420860297262
3.335841289437982
3.294629243292288
3.260453547502506
3.233069983549934
3.203440032976915
3.164244518892587
3.118597312090121
3.075417914821103
3.037794319324047
3.000753719684851
2.960576441703008
2.920402338971640
2.884657359212977
2.852690163401918
2.820082944787849
2.783350794120038
2.742867750916205
2.703256447634369
2.669717354780854
2.642008258313446
2.614042474865100
2.581274429316474
2.545966749412725
2.512940817249823
2.482544313101665
2.450829375589095
2.415629285731278
2.379577297401595
2.346795180398465
2.318516719767543
2.292274932934712
2.263762194287149
2.229649773628437
2.190343420784157
2.149922233194963
2.112681811045644
2.080459979564057
2.052839585225064
2.027809340471171
2.002487908583507
1.975614012634261
1.949944332514421
1.930981866475905
1.921952797930342
1.919170158645811
1.913283965305725
1.896634990034759
1.868894264952573
1.834877057302225
1.798518919983026
1.760449414077735
1.720062759696428
1.677454363685865
1.633089777632151
1.587239749348548
1.539740903545007
1.489029439323587
1.432207488834967
1.368321741192293
1.302182852767315
1.243178715433752
1.198940947420717
1.170732827103664
1.154166368157832
1.142158570174595
1.128403927293954
1.111040505086648
1.093357344102655
1.079852643153111
1.070976465250565
1.061870290635596
1.047022963852964
1.025846908617876
1.002303419268572
0.979615562204195
0.957471097077380
0.933944878955618
0.907574571269155
0.877675235840932
0.846893307264388
0.829076730173309
0.854772998399566
0.957368581601590
1.142097949843409
1.375087890175392
1.611622685632259
1.818409782838413
1.952189012177814
1.948600602263433
1.776920946470415
1.491262035753280
1.188669764912453
0.929554732201688
0.727684308726346
0.592460699717937
0.535604425712877
0.539451107197333
0.553114461571560
0.531848826309114
0.471603340524839
0.402503670414377
0.354785580437641
0.335437970588346
0.331398184690224
0.324530820133599
0.304215606575083
0.273467904115122
0.244280670093569
0.224535818450213
0.210596176782360
0.194207009363642
0.174087845989285
0.157822137892792
0.153026037600241
0.158192426727838
0.162756795957078
0.156491010863959
0.137839830564923
0.112564160214311
0.086919574930620
0.064390190308286
0.046907853459964
0.034990721076283
0.026178958239918
0.017068281299229
0.007575863267199
-0.000131623914753
-0.006540715925374
-0.014594237797214
-0.024361109104093
-0.031711852945024
-0.033711910215663
-0.032491632891531
-0.032157096545519
-0.034603119599754
-0.040658680682676
-0.052394863665730
-0.069903602470536
-0.087289452477098
-0.097047451326170
-0.098668796458498
-0.098710450170863
-0.101565089194150
-0.103892779093493
-0.100222698583750
-0.091496563859784
-0.085142359839890
-0.087448051397986
-0.097218697506738
-0.105684802107479
-0.103237088766785
-0.089734187657173
-0.076856764069440
-0.076002180797081
-0.085840808289219
-0.094792835250931
-0.092701064432126
-0.078614893062930
-0.060217500285460
-0.046768427011247
-0.041614222692773
-0.040872163135860
-0.038513679257499
-0.032813460220662
-0.028838822384937
-0.034499942552949
-0.053700885040555
-0.082884360860926
-0.112994099333426
-0.136043145310403
-0.153221726395215
-0.175185752485113
-0.209962928050760
-0.252103748256755
-0.288119740896274
-0.310997721679266
-0.325771595610421
-0.342949372012217
-0.369432994623857
-0.403306698904933
-0.434975250074842
-0.455134016832402
-0.462799961467896
-0.465474752178316
-0.472094764755544
-0.485088529498942
-0.498599223233197
-0.505150545904245
-0.503337141213658
-0.498374199474052
-0.496402821654959
-0.498682540524319
-0.501265193803845
-0.500816961314484
-0.499892833780508
-0.505325704707595
-0.521084191593173
-0.542163012557953
-0.556643020636932
-0.556233107454432
-0.544028025154699
-0.530010272852784
-0.521013312403257
-0.517136917137523
-0.515587585263455
-0.515428878606363
-0.518128573275817
-0.523493627328158
-0.527314215313525
-0.525929747049657
-0.521277595173069
-0.518210659565848
-0.518480471751849
-0.520041831003991
-0.521053650885811
-0.522262952637487
-0.524975957670111
-0.527526405466821
-0.526184340560420
-0.521839697383035
-0.523144063957932
-0.537941763672931
-0.562685744305833
-0.585868109699671
-0.601447505010776
-0.612782966226910
-0.623038803184295
-0.628971675802479
-0.627212833934652
-0.621569381376702
-0.619887087816958
-0.624974475701732
-0.631914941690821
-0.635010426084225
-0.633791335184915
-0.630219690518760
-0.624379366141608
-0.616592946226962
-0.610413833011161
-0.609075552918020
-0.610384524301178
-0.609106154105731
-0.603815140361293
-0.597488499658274
-0.591888142792914
-0.585955957884396
-0.579649679871989
-0.574774712260708
-0.571703535490303
-0.569026168388079
-0.567195157777838
-0.569617847497383
-0.578005504799656
-0.587772900194731
-0.590788111275914
-0.583508360258780
-0.571093249447352
-0.562697916777048
-0.563086169622885
-0.568877531871010
-0.572244310114113
-0.567870457513603
-0.556873746281855
-0.544862085235410
-0.536548712343704
-0.532383948520311
-0.530422969630938
-0.529869378453426
-0.530619702443129
-0.530446524037350
-0.526333145145834
-0.518986863241832
-0.511811739423469
-0.503815367110813
-0.488690839367737
-0.464752289103602
-0.441089287024490
-0.428507293999966
-0.427073024380543
-0.427129514151526
-0.421127735498336
-0.410817732712271
-0.403144204648948
-0.402282537874620
-0.406807024626351
-0.412889121822621
-0.418611619395221
-0.424387837346633
-0.429505620951224
-0.430621906415089
-0.425253996727072
-0.415042805879700
-0.403326469146423
-0.389742513213964
-0.369609582821203
-0.340514963630651
-0.308012501579671
-0.281608178845413
-0.265374259285874
-0.255579653683415
-0.247228664543582
-0.239713656611809
-0.236097516482601
-0.239031774497125
-0.247415274458649
-0.257047450381948
-0.265677173898295
-0.276074923287856
-0.291197327797697
-0.307504099850356
-0.317346324097575
-0.317894915453029
-0.313871120652095
-0.311238239633851
-0.311372016520759
-0.312046228974835
-0.311438543864704
-0.309679554629819
-0.308151126509611
-0.309194051908727
-0.315901016523150
-0.329068917691506
-0.343026532646625
-0.348639964025792
-0.343413440716799
-0.334822690114421
-0.331235717919734
-0.333021469159760
-0.334523227029466
-0.332488767023215
-0.330373886897293
-0.332793086589625
-0.334235406912659
-0.313108917400703
-0.237989971809776
-0.085285093657937
0.138675342490974
0.391600016219491
0.621442227317901
0.794758314631618
0.883761536532763
0.845731221463993
0.660211120119474
0.381082529384914
0.108162726255797
-0.093192041481771
-0.216794491669673
-0.276538385880573
-0.282801492652369
-0.254562153712665
-0.220088183593172
-0.196426464270380
-0.182762041611525
-0.174361862302984
-0.171011479010314
-0.171670571226841
-0.170920381343463
-0.164699090449109
-0.156409108900013
-0.154059344618078
-0.160445038819376
-0.169035879289802
-0.173248777417570
-0.176331969202683
-0.185656448927131
-0.200264446984642
-0.210844238231571
-0.209603697129127
-0.196089788175104
-0.176902652307296
-0.161710564289492
-0.155346097410035
-0.153022059478497
-0.146641670881862
-0.134735105047312
-0.122395349549150
-0.113066572964050
-0.105562156534773
-0.098792856940354
-0.093908808941741
-0.090178132581894
-0.082398885251619
-0.065661530356962
-0.042715058428879
-0.022993723806119
-0.012200250148549
-0.007279897501801
-0.003299920423754
0.003121640718195
0.020133701099805
0.056643094594227
0.102496373993902
0.127192257396487
0.113609170802414
0.081273368262666
0.062423830293266
0.067183316833043
0.082865161667002
0.095420566786213
0.102304089298174
0.110212257454068
0.125498966895777
0.146989938934559
0.168178463320244
0.185929987353074
0.205339514201554
0.233611683363461
0.268475176186558
0.297225358795927
0.311623807758745
0.318672288253812
0.329283972626244
0.341562396762758
0.345016242201791
0.337303001575105
0.327440215634919
0.324484751266240
0.329257741332966
0.335983924351607
0.337477354320374
0.327901043806081
0.304063143205920
0.267846955534997
0.226832998837253
0.189828718941308
0.161946109519461
0.144216473037719
0.133930523347944
0.123070838476973
0.101687781959971
0.067809972898623
0.030772904534946
0.000720814071188
-0.021565798954707
-0.040662255611537
-0.057121260306450
-0.067770977686649
-0.072694969271823
-0.076532846261809
-0.083198310293758
-0.092887330123103
-0.104138595051712
-0.114728596532199
-0.120056231048755
-0.116033362778488
-0.105797013263773
-0.099172782409928
-0.102579893769377
-0.112402932456807
-0.121414837841832
-0.128309208847694
-0.135376224757727
-0.139321230250637
-0.132131802371473
-0.112103037431160
-0.088002895261835
-0.070031711627051
-0.061124839776757
-0.058430607970214
-0.057923523081695
-0.055786144539395
-0.049563687555327
-0.039332314087153
-0.026235286310971
-0.011462304850383
0.001922415394854
0.009101397154453
0.007938370204860
0.001846427122018
-0.003126718030644
-0.003415186786124
0.000240361444596
0.005242980796113
0.009635262528832
0.011844516731503
0.010959124479105
0.008727629647185
0.008410079934357
0.010684767177410
0.013502508130190
0.015917350239666
0.018696658637008
0.021296504490981
0.022060754884071
0.022019447949013
0.024401494732216
0.028690536446006
0.029392184554117
0.023568406485822
0.016194907134452
0.014951971948256
0.021557801409256
0.030256957711747
0.033687151446679
0.029170158473247
0.020672525956618
0.015696844846158
0.019189207431130
0.029563629067860
0.040520012611836
0.046477517736563
0.046711488033916
0.044772759303065
0.044033937813022
0.045028700141317
0.047240312877650
0.050514136499108
0.053763364782411
0.055547320759246
0.057083883623213
0.061720998974041
0.070631672849847
0.081950477667770
0.094332061289474
0.107483242173005
0.118304610309361
0.120778457308382
0.112587424624173
0.099464903472744
0.089706212992218
0.085734067187090
0.084147594659466
0.081893455750367
0.077649472102288
0.068156013204782
0.049066376945657
0.022125445140342
-0.002064716077612
-0.012948542346260
-0.011002037845042
-0.006237141067301
-0.006266671282087
-0.009681480086088
-0.011295700933387
-0.009938777687299
-0.008699853501283
-0.008583195743875
-0.005478987128246
0.003832500693794
0.015452936491385
0.022283692595279
0.022222971140047
0.019217660987228
0.018027141029370
0.020267116548732
0.024627332767929
0.029614010276240
0.035342599632952
0.041993590761980
0.047888944444365
0.051748071617541
0.056015375604560
0.064345284198370
0.075983800893288
0.086079176221904
0.091465241884469
0.093594686953612
0.096330244176253
0.102367324855162
0.110453762601189
0.115471435049066
0.113925450396435
0.110363948273821
0.115188440184884
0.133345657038143
0.156224522009575
0.167754302631951
0.159382617074770
0.137122807852643
0.113758258155863
0.096663141440316
0.083910771075981
0.070522350843671
0.056434327608740
0.046558062607050
0.043549904120008
0.043516632067819
0.039765632311015
0.029107287855640
0.014739108793938
0.004227908112925
0.003376010321490
0.010487121492337
0.017211987225268
0.016081423165103
0.007465469076414
-0.001092316978311
-0.002132581009482
0.005972470894428
0.019356543881354
0.031396211244915
0.035266994302017
0.028121412728884
0.014171224741089
0.001987414219543
-0.001280879201856
0.005868987196756
0.017233136642604
0.021437849694379
0.012590939971122
0.002635972612655
0.021225560407678
0.100417839364885
0.256595462537967
0.479777359966598
0.734468492758108
0.972324136539682
1.145815140758024
1.213768647905275
1.146574670012297
0.939275143158076
0.628949565058439
0.300314642034663
0.052838758423300
-0.063021574384029
-0.075335684167814
-0.049841489101496
-0.031429397407155
-0.028574849299157
-0.033700702143517
-0.040965381292602
-0.047828062505237
-0.051709176143612
-0.050600965987774
-0.045330231690745
-0.039919085158375
-0.039648163652777
-0.047653854070596
-0.062978565577736
-0.082401286083351
-0.102651565350430
-0.119747409496228
-0.129270266678714
-0.130294166210792
-0.127467282273653
-0.126768038338035
-0.130336050762166
-0.137707783732753
-0.150763104079124
-0.172752922953856
-0.198608109679557
-0.208748162097570
-0.182441469755720
-0.122984054961205
-0.061858835970823
-0.030146694963226
-0.030501757273845
-0.041501543879014
-0.042992050598668
-0.031987145105529
-0.018220890209081
-0.010633294145817
-0.009461702383588
-0.008574627354657
-0.002767197281306
0.007558671209786
0.017752446456973
0.024133882435328
0.027658041576430
0.031886234076362
0.037964543757334
0.043684027990569
0.047008152671616
0.048284562472727
0.049877555850604
0.055042792951650
0.065677538930370
0.080308084476352
0.095180911884996
0.107595570608128
0.117977599872912
0.128767357123443
0.141729506636259
0.156777301063905
0.172798236661226
0.188899870549911
0.204996247029210
0.221293240997776
0.237671645599747
0.253954456488196
0.269654185674586
0.283119965974099
0.292103783662190
0.295152341372503
0.292576923026781
0.287274990926962
0.283440360414694
0.281764537447204
0.276523654475941
0.260763850354300
0.234873221467814
0.206806899063675
0.182572265270788
0.159071765680289
0.128449986179501
0.088960455091972
0.049501032980741
0.021138165580266
0.004583215288236
-0.009480414223075
-0.026308609762420
-0.039974218010685
-0.044331420435770
-0.043971849884315
-0.047791988881146
-0.057047566995473
-0.066197498128774
-0.071546284941952
-0.073831314730372
-0.075427278149166
-0.078548279281715
-0.083366953681151
-0.085941691192326
-0.081648294920588
-0.072545990622493
-0.067104612769617
-0.070048019691070
-0.076434338118531
-0.078711761897748
-0.076158786872983
-0.073846991216888
-0.074584956516191
-0.076164397862887
-0.076374396802715
-0.076418358509559
-0.077519434874858
-0.077801743077934
-0.075548495662484
-0.072740721290166
-0.072422564771360
-0.074939280920672
-0.078594954743194
-0.081322131431729
-0.081106375965380
-0.077887613867592
-0.074898681626239
-0.075393253937795
-0.078741661950582
-0.081275337357772
-0.079950411197004
-0.075432182033566
-0.072877529893107
-0.077638954895356
-0.088231937698516
-0.096157739407526
-0.094911818466619
-0.087212696264628
-0.081474861035174
-0.082159492322801
-0.085816164200653
-0.086938989146392
-0.084748881067468
-0.082743478792324
-0.084121446884468
-0.088620410518092
-0.092301169733148
-0.091169550604360
-0.086187722072214
-0.082597573818819
-0.083075350632404
-0.084565262822658
-0.083670793628091
-0.082205214651228
-0.084760703250291
-0.092174728315010
-0.099723842848349
-0.101757675576287
-0.096724220190224
-0.087767069767914
-0.080084917898918
-0.077839600520988
-0.081670862224885
-0.087848500155249
-0.090463002215396
-0.086332775944950
-0.078950351398542
-0.076192343208505
-0.081791169640373
-0.089898268033674
-0.091338145730862
-0.085033004384799
-0.078946605837873
-0.078813164429989
-0.080794694631413
-0.078077571915006
-0.071479679382776
-0.069328654446013
-0.076298140345794
-0.085937360881247
-0.087728034919683
-0.079281535185523
-0.067279863238176
-0.058546868046460
-0.055128139872594
-0.056518429221887
-0.061693639290792
-0.068367028195832
-0.072744742867779
-0.071832880387256
-0.066299144384354
-0.059636822400124
-0.054108757801389
-0.049933672958013
-0.048865678156948
-0.054798956959560
-0.068663156550022
-0.084628053975823
-0.093651227219215
-0.091541286985228
-0.082855332059767
-0.075871634743057
-0.074642977012344
-0.076946611012318
-0.078011629834037
-0.074596448944371
-0.067143994512782
-0.059587758295513
-0.056455996070468
-0.059368464328694
-0.065879099028997
-0.071201603366577
-0.071782042305231
-0.068496359132778
-0.065485060702956
-0.064754936152796
-0.064118811202165
-0.061682555325763
-0.059153899086501
-0.058885096680576
-0.059875253467740
-0.058544373790497
-0.053690808548419
-0.049895113547275
-0.053556506665932
-0.064767097754438
-0.076074498763589
-0.080468430361542
-0.077919798282903
-0.073116288049065
-0.069141978334952
-0.065325555588735
-0.060393138668052
-0.054899490121557
-0.050379700200667
-0.049062268214176
-0.053451678757159
-0.062262364188659
-0.068673623385159
-0.066833710657490
-0.058376985395967
-0.050038909842114
-0.046856363701960
-0.048708482586655
-0.051474627231367
-0.051433509268134
-0.049748760311560
-0.050541188524646
-0.053343738853655
-0.052357898640123
-0.044980358897261
-0.034624311321834
-0.023339455003687
-0.008478724257805
0.010892597970537
0.028996466791638
0.037654794146696
0.034790041181639
0.026899998726161
0.021605825752605
0.018919821456275
0.013077029477437
0.002556698027350
-0.006214657266359
-0.006945077980063
-0.002166721656068
-0.001211272730347
-0.010513260307532
-0.027731892646117
-0.045393076419864
-0.058743425193986
-0.068339760539265
-0.075567229551329
-0.079224755763906
-0.078163556133441
-0.074174423276047
-0.069932289808556
-0.066165473372770
-0.062634920545898
-0.060085662537362
-0.059557131825806
-0.060612275409853
-0.061054062833110
-0.058730089794757
-0.054718063805104
-0.054189965338355
-0.061392584286161
-0.073341718722673
-0.079649347407276
-0.066251849407570
-0.016943422912611
0.085797466545323
0.255800693023441
0.492781551544482
0.770638761523488
1.032386040750632
1.200266286437060
1.209844548860669
1.056593162254321
0.805153934594832
0.536447422863563
0.294299345139650
0.094145656454719
-0.044228509338749
-0.105285653934684
-0.105882152460942
-0.085830423206406
-0.073328488570104
-0.073056779075512
-0.079552994188534
-0.088479947173773
-0.096739701195811
-0.100996927268098
-0.099909529864890
-0.095740874086961
-0.092341997577517
-0.091898865934704
-0.093141944630252
-0.093038381041979
-0.091550280011082
-0.092790221383622
-0.098621703629554
-0.104049182263843
-0.103596377808837
-0.099494176765741
-0.098019255222622
-0.099869248233848
-0.099859691965029
-0.095148829604465
-0.088453490805849
-0.082827362146788
-0.078111734177749
-0.073915752172907
-0.071294578503146
-0.068900426707651
-0.061943607497862
-0.048857629821775
-0.036257640177674
-0.033130293758740
-0.040423491618169
-0.049228025830081
-0.049973538873068
-0.041696500367604
-0.031216413606284
-0.024541181133868
-0.021541998320159
-0.019306453962854
-0.016936906628093
-0.014325404331632
-0.009344161455690
0.000273168144909
0.013472683485487
0.026102346961686
0.034387977556214
0.038145278637817
0.041446549886514
0.050340689103813
0.068119419047222
0.091150138916000
0.110618533653472
0.120537597947550
0.123792221609033
0.128788229038263
0.140694112655359
0.158118607936426
0.177607375865856
0.197271232830553
0.215144144388411
0.228490886264063
0.237371097034192
0.245948142813357
0.257654932900902
0.270797840303713
0.280669445979494
0.284327592677430
0.281755711988556
0.273741071751551
0.260431271753567
0.242028134194912
0.220182325945715
0.198026917679577
0.178175824478246
0.160115494049517
0.139518962867020
0.111921504588864
0.078980172417561
0.048869023827970
0.027648242020083
0.013215585220595
0.000578423186523
-0.011352409355785
-0.021551562950560
-0.030696587874423
-0.039395129563117
-0.046017961781424
-0.049400770145871
-0.051576259309478
-0.055635903969041
-0.061689537741564
-0.065969216225531
-0.064379397400344
-0.057375677169283
-0.050417408818770
-0.048534147011937
-0.051732256124293
-0.056661319144384
-0.060405126858304
-0.061125449434974
-0.057761037699730
-0.051657858838515
-0.047183982224154
-0.048193744267411
-0.053538457584107
-0.057984088651648
-0.058099998869507
-0.055084162003710
-0.051780101746955
-0.049866110796052
-0.049734823227667
-0.050156843865434
-0.048724635088130
-0.045005140576071
-0.042099615835847
-0.043399194357385
-0.048768754788810
-0.054543286676257
-0.056521564692143
-0.053257675428161
-0.047494066267935
-0.044357284269745
-0.047217213089767
-0.054619675541741
-0.061417292256865
-0.063268276038313
-0.059823582363395
-0.054190473721244
-0.050714451937317
-0.052078395417138
-0.056626888741607
-0.060231892013909
-0.061823723621496
-0.063923231773825
-0.067330310667011
-0.069446551042202
-0.068081855424089
-0.063622976629377
-0.058042287510566
-0.054134569122783
-0.054918781122679
-0.061394424929933
-0.070172101521487
-0.075081291360474
-0.072716515580023
-0.065640718371516
-0.059295299138453
-0.056948793510520
-0.058533235313782
-0.062398508141791
-0.066188029725913
-0.067607441359810
-0.066388166121444
-0.064395797216787
-0.062780483261042
-0.060858930011018
-0.058938956173832
-0.059577508336521
-0.063371347763760
-0.065772658318531
-0.061885901279534
-0.053232401411678
-0.046479336600464
-0.046504229184527
-0.053093101784267
-0.062618355953420
-0.070086840442537
-0.071049211384218
-0.064957882066613
-0.056694945934336
-0.052060845621862
-0.051426346090415
-0.050578750247967
-0.047584597306642
-0.044648279537462
-0.043218184696741
-0.042088314374149
-0.040695602873095
-0.040259117180701
-0.040980702229527
-0.040424907522428
-0.036054309573420
-0.029342689125479
-0.025685813635951
-0.028711606075957
-0.035995649589209
-0.041553805034922
-0.041019394409437
-0.034627338457204
-0.027876341290766
-0.028172629590371
-0.037027059414629
-0.046427424427486
-0.046486755182211
-0.036484811561813
-0.025648752938377
-0.022299167289503
-0.024626881245725
-0.024716944604382
-0.019771452204534
-0.014831769317425
-0.014650289934101
-0.017760173186362
-0.019836136347359
-0.019286422252430
-0.018129495809038
-0.019223071719755
-0.022936319027947
-0.025946267844677
-0.024753252955662
-0.021027538457325
-0.020682303957248
-0.025669534630699
-0.029576623018073
-0.025094028951785
-0.014099649005616
-0.006104711576445
-0.007704372384117
-0.017141424275919
-0.028399460112090
-0.037397844701563
-0.043400924848669
-0.046338029613954
-0.045578497279524
-0.041909859067284
-0.038403924493450
-0.038055148629259
-0.041333571216230
-0.046133078063588
-0.049565239024104
-0.049855592424228
-0.046948396498944
-0.041971015134239
-0.036502098002359
-0.031977702901530
-0.029234951338372
-0.028522332711535
-0.029947477666172
-0.033217751986221
-0.036740892071900
-0.038144530605300
-0.035698081558508
-0.028342470017364
-0.016084220676570
-0.002055712102903
0.008303589417983
0.012202864380021
0.011847967357448
0.010862042175261
0.010146853131002
0.008084879028343
0.003439332321667
-0.002981314318639
-0.009312319753868
-0.015648811664666
-0.026173316589064
-0.045572485181483
-0.071525359144666
-0.093739392743057
-0.103108858568478
-0.100218866473584
-0.093644175559958
-0.091801458508409
-0.097427413223963
-0.107707338048101
-0.117452189115027
-0.122607235613208
-0.121704535601458
-0.115083629795686
-0.105602571345685
-0.098968972490402
-0.097877887032147
-0.097383584030745
-0.092029088034718
-0.085341087358767
-0.086314683125603
-0.096061151264653
-0.099805922207235
-0.071169673275581
0.016936348946075
0.179409610339207
0.404486238532276
0.651197118008538
0.872737634754658
1.038659202084364
1.118963037459294
1.067029671966621
0.862371085543730
0.564552711060940
0.281493164598845
0.081893047172946
-0.034973239981694
-0.096116819122731
-0.119027713980174
-0.116425100697435
-0.104343062331162
-0.095767357520412
-0.096030350144883
-0.104459242118984
-0.115717316802293
-0.122846271143988
-0.123354589417236
-0.120594351599119
-0.117978038515905
-0.115217048251887
-0.111427474047397
-0.108632441189849
-0.110067403636446
-0.115857592804743
-0.122021013513826
-0.124545208018758
-0.122900730165518
-0.118340967918949
-0.111181177491768
-0.101628552697235
-0.091584065579596
-0.084110852028374
-0.081404347758324
-0.083264764771893
-0.086791867772589
-0.087839234248236
-0.084285342854877
-0.077929334899205
-0.071981781827054
-0.067312129903873
-0.062346594062037
-0.055917351953471
-0.048915163683306
-0.043168840828604
-0.039551455099269
-0.037251461082099
-0.034411350668360
-0.029560852149983
-0.022741206530268
-0.015602750740426
-0.010236843442271
-0.006945065544617
-0.003607284574816
0.001599907677660
0.008077735900169
0.014492798229266
0.020952350530630
0.028780717237474
0.039491516529001
0.053560049437392
0.068727121619137
0.080657225399313
0.087292775778413
0.092099596678299
0.101322877816240
0.117749991178194
0.137946504885531
0.155643868497622
0.167394447359512
0.175296004139850
0.184451282198881
0.197385189221234
0.211924177158916
0.225632569655486
0.239870842258631
0.256626429579428
0.273419421844424
0.284806922339505
0.288078468156817
0.284973011848448
0.278414154257264
0.269679763957877
0.258362862576852
0.242833966436042
0.220881538471310
0.192530194825427
0.162464503625036
0.137057617596010
0.118296252171406
0.102259797712565
0.083626217822903
0.060330437958673
0.034276294276129
0.009295197817490
-0.010882205027574
-0.023944809257384
-0.030285489490018
-0.032911384572374
-0.035111608594332
-0.038767501546127
-0.044293291740180
-0.049989272299180
-0.052289193244554
-0.049378902029812
-0.044235654718609
-0.041874453783972
-0.043621203710527
-0.046159669521454
-0.046333509490929
-0.044210727174959
-0.041113518006902
-0.038238203301970
-0.038086279184277
-0.043590105462132
-0.054381952050120
-0.066098471825706
-0.074166899352703
-0.077278390545273
-0.077176060348788
-0.076206252804006
-0.075891912794992
-0.077201640685096
-0.080445731894952
-0.084492204924190
-0.087506959162858
-0.088886653727650
-0.089263503861500
-0.088643215134396
-0.086130541733323
-0.081888656500211
-0.078295980560207
-0.078606959791010
-0.084012398659625
-0.091114651003926
-0.093269008350984
-0.086628766244081
-0.074934334685054
-0.066885758422680
-0.067782460110972
-0.074262916625164
-0.079069296944322
-0.079874572546869
-0.080275917841672
-0.083751012220228
-0.090287504528398
-0.097473856712792
-0.101900254164886
-0.100778668733443
-0.094632598201362
-0.087598363280195
-0.083661304857398
-0.083519519040763
-0.085481372915284
-0.087343660434821
-0.086620685909069
-0.081706092085328
-0.075072484899142
-0.073040279061177
-0.079152311628362
-0.089408068550003
-0.097098805632573
-0.100191204910132
-0.100826300345540
-0.100496057683269
-0.099697165794083
-0.099882567395068
-0.101582284200250
-0.102144156540770
-0.098838412855764
-0.093031446089376
-0.088673958294735
-0.087951650765783
-0.090102331964107
-0.092463533310710
-0.091162018536617
-0.083618890298783
-0.072785105889305
-0.066260778772000
-0.068657482354077
-0.077121188305827
-0.085658289506348
-0.090750332157449
-0.092046241850000
-0.091149197526290
-0.091218527474755
-0.095372197401550
-0.103271046037327
-0.109970168968279
-0.110221615560669
-0.104043717085449
-0.096482390299022
-0.092096270746529
-0.091625461222910
-0.093792225764916
-0.097455132256101
-0.101155739142250
-0.103227761194626
-0.103982186247347
-0.106311362410827
-0.112968633684273
-0.123774904579665
-0.135363940060786
-0.142866316450454
-0.142613714444612
-0.134855554160297
-0.124168120221746
-0.116433281643741
-0.114544933498438
-0.116190838965880
-0.115654605401350
-0.109116216088252
-0.099075400585056
-0.092038159970278
-0.091277844731603
-0.094308117576335
-0.097409102421743
-0.098772383885504
-0.096802492626262
-0.089827780482080
-0.079331780335832
-0.069748448507808
-0.062510825715659
-0.052935884792050
-0.035113918172947
-0.008144973884808
0.022973201846550
0.050154029358678
0.065851745198580
0.067219654878543
0.057680755896558
0.042854374511458
0.025199638163084
0.003676733146210
-0.021384768280561
-0.043477321955113
-0.051956516496867
-0.041570548296429
-0.019503397994875
-0.000988125425677
0.001127732998438
-0.018748838016125
-0.060517081282805
-0.118112807510143
-0.175166313035398
-0.206796563654881
-0.197326878788098
-0.159428932182040
-0.124026428034624
-0.105666354958923
-0.090925381428441
-0.066126511255676
-0.038794240578391
-0.023152798079091
-0.021396101751102
-0.028250815332714
-0.038880497902910
-0.044751939092110
-0.036764094130802
-0.021079709770077
-0.017241788895778
-0.027883425349801
-0.019582990676202
0.055301426867734
0.222254826745039
0.469492136064937
0.753581580110921
1.010402825425412
1.168685020608085
1.176240506743752
1.034537237874576
0.800267646780518
0.535823894215203
0.271888643316146
0.034413488323502
-0.122025334144224
-0.150384127321751
-0.075911103588804
0.008931320685605
0.023704095876324
-0.037014312092102
-0.117526569229417
-0.162051147366573
-0.156377820362314
-0.123065560650722
-0.092309289648921
-0.078157176312339
-0.074006807745768
-0.065710261475598
-0.046660121575184
-0.020889069867585
0.002256634738439
0.013071500600308
0.006058617543770
-0.016257506029709
-0.045010952876410
-0.069756228877535
-0.080106364877867
-0.068279525801973
-0.036746590270348
0.000449522505374
0.030662339841263
0.053590978716363
0.074475783057707
0.092119892214902
0.101179650886513
0.104040517724343
0.113111667124065
0.138017833137768
0.172462179903386
0.197994993960526
0.203018239582990
0.195399388853783
0.193353057184679
0.205996143482859
0.224643077557106
0.231094890303275
0.214254102083200
0.180431499072036
0.148675883245253
0.137530594921196
0.153611512662460
0.184886939055004
0.202107916930562
0.175956288994179
0.103284732053885
0.014917889143616
-0.048715825510608
-0.069583201965155
-0.061050527861917
-0.050578038111574
-0.055032040747097
-0.071858152322358
-0.090900582884206
-0.106226743279286
-0.113196655473466
-0.102734761532457
-0.067566357786141
-0.012837482558534
0.048926823636889
0.119212469808314
0.221183029615040
0.370748995904759
0.537830087783039
0.650792798491248
0.653033140288772
0.555723483879597
0.430799733969682
0.351824014312450
0.339044690202046
0.356817318933778
0.358332402585230
0.324828450049403
0.265791687279574
0.200612604442237
0.146949682161924
0.114035392785202
0.098904368975169
0.091827544845109
0.085537554452387
0.075809768772843
0.056226925479257
0.021300083665064
-0.021347345980578
-0.046989381541593
-0.031608974246675
0.018072526504830
0.054125798579657
0.020357470894782
-0.094771390277433
-0.242987942613966
-0.360502898688625
-0.426429717891819
-0.475357259255155
-0.553143777051040
-0.664064196647184
-0.764394813188274
-0.805271295813681
-0.778872392818679
-0.721444352034722
-0.671732920387619
-0.633707519234398
-0.582529015894457
-0.494936941399980
-0.366213495815405
-0.210625256779143
-0.061313094455322
0.038204933711485
0.062965460815976
0.027713875549708
-0.029905816980336
-0.077773788772879
-0.091992021256667
-0.052659139160514
0.034209958810163
0.116138291518764
0.127217093565262
0.053368959789039
-0.051652496869473
-0.120662504942768
-0.128209804825632
-0.091157775475181
-0.035832614042127
0.022045005938558
0.070661880394050
0.091811358170965
0.075958477362132
0.053180666267146
0.088214898569109
0.214052004416144
0.367735823512174
0.424000948393670
0.318253943688819
0.125159242428159
-0.007296178686296
0.001044971242651
0.100610036734279
0.177969855509451
0.160737629090669
0.067572796302442
-0.021437770151721
-0.044586034194726
-0.015187876866604
0.007512537892440
-0.002757372518655
-0.013299757756318
0.011460606658826
0.057543122757464
0.082729557639792
0.070195410564833
0.042499940134300
0.029628096500990
0.033076774443264
0.026107744685996
-0.008542536833429
-0.052485385191687
-0.073341345839980
-0.059881902108163
-0.023091931941121
0.023096148805312
0.064129881628073
0.079476852811745
0.060708772562114
0.036537188044337
0.054974668136024
0.125160877635797
0.191815941887358
0.186978928299925
0.101539498851160
-0.005877842109968
-0.061036633545757
-0.028650499946482
0.064350893137215
0.146306025809406
0.157491808421793
0.102777034834971
0.042690825890213
0.030511439007179
0.063182695952828
0.091266362448937
0.071821676954492
0.013466328390797
-0.031153189970515
-0.021695988559354
0.028738701759199
0.080252894036232
0.121465053050019
0.168625336354149
0.207295441100860
0.175265342543372
0.037462797859326
-0.141579717497630
-0.244413094251089
-0.225221660557135
-0.151535980169639
-0.109803318706721
-0.107782001044162
-0.095153957601563
-0.050634484061339
-0.010985495307510
-0.014306518648770
-0.043156636357663
-0.048131103939401
-0.021806948932950
-0.015988700352563
-0.069096383402053
-0.145109444531852
-0.172303633094104
-0.122374850107214
-0.022270299820505
0.098443770180273
0.240049116154033
0.411823795295347
0.605182488966685
0.799444201884092
0.970988077211598
1.073131752908811
1.032587235827453
0.812200852609378
0.471937666288911
0.135067508772259
-0.097654260087399
-0.187917328907198
-0.154899668825070
-0.068083244634986
-0.017624757513001
-0.049390325784421
-0.132686719242537
-0.206421097535909
-0.241801986154933
-0.250008722412771
-0.248570806247124
-0.237809865267732
-0.208410163624841
-0.165284303115259
-0.135481998802427
-0.142992014806526
-0.177777850342085
-0.201967927710203
-0.186680986228905
-0.130245182848688
-0.050456124674694
0.010815253371175
-0.013106881400934
-0.156231042578011
-0.348857022789233
-0.449290721846030
-0.378511652232984
-0.208927794234893
-0.097065290448455
-0.128969023633057
-0.241506630232079
-0.295536170059865
-0.219669234833876
-0.076436951394007
0.013375922532409
-0.000311286940970
-0.060070008528489
-0.085498823316559
-0.061744802046133
-0.033009316303795
-0.036967748265648
-0.069503922600835
-0.104677893899644
-0.125883787492782
-0.127855508702610
-0.105031950810572
-0.063143166753432
-0.039470900353497
-0.077770687906854
-0.163991672202071
-0.216722453417421
-0.174894216618315
-0.074074923367302
-0.004915803689618
-0.013137705920860
-0.062173234691378
-0.081935106289464
-0.040496082393951
0.031270645185593
0.080592585349066
0.090555152076358
0.094388351099423
0.134280953713297
0.207605941762341
0.265642306816386
0.275053693556188
0.260756854536589
0.265815099257409
0.286450011811233
0.279390108371754
0.230282493554787
0.178212910030959
0.158104069454545
0.152431110534761
0.124343156509391
0.070495199781048
0.015983901974633
-0.019832719946233
-0.029798866776728
-0.010567039639722
0.028228811406532
0.056934263408130
0.050944396795347
0.021961421716650
0.009312219967404
0.035338259337617
0.073517562218934
0.070420110688619
0.006316518992138
-0.079219402570552
-0.134509705210817
-0.151211179784886
-0.159096418450270
-0.183274647202928
-0.218173047920812
-0.232194856102417
-0.195746149585898
-0.117086337514268
-0.049882373515596
-0.050579059792708
-0.122307348845312
-0.206206774136474
-0.231257905280322
-0.177214269061668
-0.097170190747829
-0.069295775777852
-0.108912011977870
-0.145197114663486
-0.108965904825849
-0.018498612779581
0.049407172690876
0.048268060718173
-0.003175998949992
-0.055197554126136
-0.074283521629239
-0.061509268244089
-0.037214076129633
-0.013600895523082
0.016110336412565
0.060409811563024
0.103820270440541
0.111447275357490
0.072678325528500
0.031949901128267
0.052092397123357
0.139423438124964
0.221885271678188
0.218374523037815
0.126347125119781
0.024344091396120
-0.017194509969208
-0.013894966189441
-0.044723909416331
-0.155906670463360
-0.300181298321393
-0.381878204929688
-0.362182998186522
-0.305403589421790
-0.311590112920712
-0.416584621612445
-0.567099827200054
-0.673479058998091
-0.673668826706308
-0.571553586549506
-0.438123082320178
-0.360507796322179
-0.366959889501497
-0.407733357468855
-0.418822696095683
-0.388403208985181
-0.348900741013733
-0.324094434446042
-0.308019849445321
-0.288938760585102
-0.265794631180066
-0.230957250720183
-0.163699599743571
-0.067420157567410
0.004469937127873
-0.006557083252679
-0.095202437850515
-0.187012378815766
-0.205261618284848
-0.142162693873351
-0.061132357338632
-0.027071192001163
-0.049224786098971
-0.096012322874056
-0.134561048855680
-0.138128531047525
-0.085205435045601
0.015930027869863
0.111742689832627
0.140055522817256
0.088931329963093
0.013440817141877
-0.012232795214927
0.031884369151432
0.090059480878604
0.093192491063175
0.029709915717661
-0.060471287104508
-0.140372258849887
-0.195386622698347
-0.214610109165550
-0.193520428333025
-0.159474834360694
-0.160976075508394
-0.214537265069574
-0.280117385969608
-0.302917291695739
-0.267715125356369
-0.205606952982233
-0.160275020717471
-0.153614298221857
-0.175437832974201
-0.196326268647523
-0.187633141928422
-0.142162390298825
-0.091194960626961
-0.089715257053850
-0.160737691705204
-0.259052706811167
-0.308418390823482
-0.267457842598539
-0.147871484505992
0.016807481923543
0.205306861982255
0.416318911328634
0.643103219631516
0.839123895898860
0.932468137195967
0.896677974375699
0.782902185830564
0.652397263295489
0.504219791297352
0.306062195302497
0.076191576537816
-0.105941288011078
-0.170108661683050
-0.110102973260628
0.025172762359076
0.159229594947376
0.211706233664856
0.145153091384912
0.006838529911562
-0.101628967613974
-0.112355069319306
-0.047098268108576
0.011691154831695
0.001576470671649
-0.064534059704758
-0.119337393774186
-0.112286149766868
-0.051484385680202
0.018799705857888
0.058775679512709
0.047322831109028
-0.016824580631214
-0.106428612935743
-0.169988905929097
-0.170002796154034
-0.121876015166307
-0.080583147968334
-0.082604488138481
-0.107796262595260
-0.102924122420284
-0.043017393136288
0.029013114935435
0.030108333255054
-0.079717177701164
-0.240584539657473
-0.337495387884314
-0.309067534706575
-0.201405001606144
-0.115650166227712
-0.114583156225853
-0.174268558166665
-0.213176943738987
-0.169578143659031
-0.053876226877059
0.067777422180469
0.127611172854877
0.105401971509559
0.048936818930931
0.032942260508650
0.072559721286431
0.098488434279080
0.044956269243647
-0.063874161929517
-0.141915590482210
-0.130150918755674
-0.036466405470409
0.089430744721824
0.196238294561005
0.255440411298796
0.268283039390177
0.256543902280762
0.241320146226758
0.229592308514356
0.223876681564571
0.237642087661240
0.283535653895931
0.339462759840074
0.346682775224000
0.265904522653804
0.130607358412272
0.024881449246965
0.006603353669287
0.065759566482627
0.160351181179147
0.272587534127532
0.405538565023182
0.529758895840999
0.573068494428059
0.492610131250712
0.337640761753522
0.208637171434213
0.161911804514877
0.178847733823322
0.216938019557625
0.256792812888127
0.297062889755784
0.330204978504555
0.336168111257982
0.301624918512812
0.249063054570607
0.230657681545368
0.270151725625751
0.323889888422384
0.327062760450556
0.270640159378058
0.207848056157254
0.188657670886685
0.211330977459596
0.241732779489983
0.259057688830014
0.268695330412749
0.280025923267939
0.287533929995411
0.277087922289413
0.245067431494672
0.207726462829294
0.190741372049058
0.207958146307574
0.250609264403946
0.297629342227599
0.331323450528726
0.339878154634068
0.315563495775084
0.263674653789595
0.208118637667589
0.175087583528002
0.171514675541727
0.185615131214585
0.204764023605236
0.225687499922948
0.248298383590072
0.266388819055867
0.269019602789797
0.251448999688082
0.222199337705707
0.196881372590244
0.184732057178345
0.181282176752813
0.175141824374437
0.163332354940209
0.155495230122562
0.158286708762464
0.163621772081501
0.161389499720907
0.155913826503966
0.158905950271213
0.170508022157355
0.178209889290918
0.177190442185262
0.182782524497732
0.210600383917556
0.245876390317225
0.250155860885109
0.206740832699974
0.143652162283092
0.100661344804609
0.089158270485972
0.094781235827767
0.103852895495158
0.114674889023964
0.129686308465859
0.146381032598106
0.158933629158896
0.165903737255962
0.170857944052887
0.175029980112777
0.175114962455550
0.170777969782942
0.169511753056148
0.178011423722620
0.189178856371677
0.184915650790913
0.155476829321855
0.111120941703849
0.071427543417132
0.046957473957310
0.033619883677198
0.021441384120662
0.004622041521865
-0.017059337923439
-0.042093299122806
-0.068396703768438
-0.091938864894121
-0.107604651033858
-0.112552098607806
-0.108741129283452
-0.102554835018146
-0.101302196528865
-0.107871057003805
-0.117620879026713
-0.121880041142384
-0.116048583027194
-0.104653886332605
-0.097996206399607
-0.102723766200435
-0.116204720900727
-0.130651271539329
-0.139476727407423
-0.139287180268324
-0.131961310782533
-0.126527888734973
-0.133707320859128
-0.156571672749185
-0.186903766860265
-0.206679342457824
-0.189448337076498
-0.103492457334237
0.076179911028856
0.345609752059341
0.655516804880341
0.922237907132979
1.062430892957629
1.030358499726319
0.843301094462908
0.575715609024188
0.310848958487107
0.090954030096711
-0.080722296527433
-0.205039663690718
-0.277136245779904
-0.303222625611134
-0.304254913228246
-0.301485031919599
-0.306393666965501
-0.320866142636939
-0.340439791099922
-0.357939572824383
-0.368144151478593
-0.371450267775365
-0.372672327476762
-0.375938476921573
-0.382319815046199
-0.391918689030690
-0.403239353357875
-0.409184952699693
-0.400647557013759
-0.377804120435388
-0.352601168171759
-0.336651621717735
-0.329470692032807
-0.320406764259230
-0.301720145225982
-0.279940720565738
-0.272536956210197
-0.290924839836691
-0.328874744090536
-0.369484100049465
-0.399186246067570
-0.412037222901990
-0.406509586318023
-0.385519456157001
-0.357541319750070
-0.332087312278654
-0.314954263242797
-0.308573837588040
-0.311819723379843
-0.318378791174408
-0.320573383680489
-0.316057724317039
-0.307541970166505
-0.296099384257734
-0.278859545228428
-0.255681221112051
-0.235473888083753
-0.230827102511622
-0.244673192418308
-0.265171777222539
-0.275345910948618
-0.266409353113034
-0.243050639074507
-0.218560456239573
-0.202981472472793
-0.191902621680053
-0.167441543696287
-0.117717992815501
-0.060359670691779
-0.036510107911679
-0.068606069625181
-0.131402597069570
-0.177200081944204
-0.182061824888480
-0.157556935220452
-0.127357013852874
-0.105130347882729
-0.091920685598248
-0.084046111269806
-0.078741964339493
-0.075544085144599
-0.076487856020575
-0.084375502602165
-0.099263368782539
-0.117682309108674
-0.135856838407675
-0.153393132756393
-0.173748517761488
-0.199382977331491
-0.225403490084955
-0.241371083359698
-0.242978038799559
-0.239676532623972
-0.246307681657622
-0.267209967078564
-0.290318617465680
-0.296032017819017
-0.270479438501921
-0.210830514764934
-0.123237219371094
-0.025901265677448
0.042257739496404
0.031594003621648
-0.076090673329454
-0.233128027438770
-0.353752831047694
-0.386125553943588
-0.348765603245542
-0.298131813373053
-0.277424420343170
-0.296884596073672
-0.342820232736323
-0.396033242505482
-0.446541294294172
-0.490782236253150
-0.518059362950462
-0.513646865450181
-0.478285952915387
-0.432372602811369
-0.395231436855189
-0.366420201431764
-0.333896254422857
-0.300433933127336
-0.291770663424944
-0.328397358369593
-0.395453236621444
-0.448513149120622
-0.441565926547641
-0.353461504442612
-0.214330574123143
-0.110355004798013
-0.128805642677230
-0.275999093325993
-0.458871535758660
-0.561736677477122
-0.544380708542797
-0.460478023099573
-0.386425708311435
-0.352854056023074
-0.341772680062120
-0.318360373585620
-0.258415056988365
-0.168654035672461
-0.088491324905175
-0.053762666313710
-0.049763112746848
-0.025293205359393
0.024885986803354
0.024244969941682
-0.092873014371676
-0.268919143732184
-0.356304007621835
-0.276035732324767
-0.111394118096828
-0.019110676794036
-0.063085170029879
-0.167197169820467
-0.223775145102964
-0.202159724101933
-0.142030451537581
-0.089760128660340
-0.071577431070694
-0.099743275310986
-0.167666773997646
-0.240946215195891
-0.275778732805992
-0.254402796589375
-0.200468393703207
-0.159759250029221
-0.162423919396269
-0.199613397521431
-0.237087697985377
-0.251197998275057
-0.250993658806898
-0.266473480833871
-0.310620952240339
-0.344912653293404
-0.293829993463080
-0.122749924229323
0.096329652788568
0.230080750108119
0.208021706518063
0.077576410812407
-0.062238558199960
-0.138327184690386
-0.116051601730943
0.000637666894987
0.151894349677931
0.244640366622837
0.226903084201292
0.132319011994074
0.043549448182291
0.022807030328112
0.076703164971984
0.168718492696749
0.252047690139745
0.291265997368836
0.265715570466802
0.173740756083221
0.046377400032359
-0.052942803488963
-0.060526510765695
0.048661880558852
0.249905072787731
0.489118003795902
0.719819096836565
0.933233543127308
1.149709268694666
1.363308711593673
1.489552634068447
1.400190815189082
1.055732311289868
0.597344959972826
0.252997690012996
0.136013553839288
0.171688754279195
0.222511387205631
0.232457924182703
0.235131745884714
0.273262433535820
0.345041909571791
0.409170001729452
0.419563646318373
0.364769008803371
0.288311295789976
0.259720902189800
0.306936702081223
0.382151458259076
0.410777827743771
0.370810778691271
0.309077337003625
0.282276160265044
0.298922783518310
0.322780630735089
0.317981982867997
0.279378387545255
0.226878226928147
0.184015211875586
0.163562277274719
0.165855956338139
0.184282562680934
0.214060124495994
0.261720881378309
0.339871400917594
0.439384359016122
0.513401411579353
0.507861847088590
0.412019493149014
0.276935586772067
0.185208524844809
0.191563289392696
0.279665140192832
0.377425664260963
0.416821644042494
0.382297844265870
0.315236682886165
0.277300032591811
0.297626585457318
0.351997108237014
0.397327767772807
0.415193420559126
0.413761152037382
0.405000320249746
0.397075807924988
0.399800692456615
0.419966446590477
0.450244611485392
0.472466151602417
0.474628802932691
0.461546080250482
0.450142429784517
0.456569305741018
0.484178559031717
0.520229555549844
0.545506076232019
0.549015582479401
0.534057408699936
0.512168439670905
0.493571568003745
0.482253778329429
0.476452900303211
0.472190533387079
0.466765922419994
0.459198010321298
0.449089730951850
0.437044441637587
0.424634693527224
0.412393682025738
0.399448372390438
0.385267458627833
0.370065028740635
0.354367402292442
0.339276272306452
0.325438132113364
0.311286980663283
0.294929356371037
0.278432897923323
0.267019856810623
0.262154632084016
0.257740492044210
0.245590819239948
0.224064006554242
0.199377096726132
0.178126777603192
0.160485038115930
0.142010320593831
0.120407315505800
0.098210658658304
0.078890663871616
0.062349172631071
0.045929586670181
0.028626909885450
0.011837302200625
-0.002652663225332
-0.012600328228693
-0.015584997303797
-0.012765339329196
-0.009619653883871
-0.010024953362143
-0.013321417280090
-0.018719341496838
-0.026899736565406
-0.036302281919137
-0.043548517988436
-0.048014158460974
-0.052453038372342
-0.059611635085459
-0.069588006672303
-0.079635899595748
-0.086564540686627
-0.089721837999038
-0.091113945215276
-0.093580191847085
-0.099797721808332
-0.110786972705908
-0.123395783170400
-0.131049489802090
-0.129566270484280
-0.122098965834173
-0.116662452754663
-0.118858449881030
-0.127752592983120
-0.136965825093821
-0.138429155739997
-0.128247129302538
-0.111483888195589
-0.098897982728277
-0.097098221641542
-0.103339486710561
-0.110639333611247
-0.116109548443916
-0.121799896804114
-0.128524959945395
-0.133927841651071
-0.136890094170754
-0.138557484023107
-0.139203722555513
-0.138818320869761
-0.139779679688718
-0.144747131070316
-0.152926200288291
-0.161518838265644
-0.168860093167651
-0.172952331382983
-0.169895928447361
-0.158355344743928
-0.144382011202960
-0.138088287231434
-0.144929266208191
-0.161769689221726
-0.181354529925476
-0.198547053118920
-0.211869387951469
-0.221206391646748
-0.225828171767862
-0.225255913582580
-0.221442062564754
-0.217775045269599
-0.215391751151459
-0.212965201719580
-0.209805644455768
-0.206126813380548
-0.201357293516198
-0.195018138030452
-0.188029654283118
-0.181960784234011
-0.178641884848716
-0.179982561742999
-0.185565367018203
-0.191474387809118
-0.194584974770365
-0.197107848387158
-0.204691596006859
-0.220880340509901
-0.241589350448447
-0.249527999301815
-0.214751567044262
-0.106329694689385
0.092502342336807
0.372193021463586
0.688917989246583
0.967984124633302
1.124432120445601
1.100067421241503
0.904295936579651
0.618020290511507
0.336363930125861
0.106601083274923
-0.068519439567385
-0.188152967590390
-0.244892992515768
-0.249730433321846
-0.234730703369975
-0.225434729884247
-0.223936171897071
-0.220591761857788
-0.211933859922146
-0.202305813333530
-0.195081190270497
-0.189670951087448
-0.183887567380615
-0.175213602164134
-0.163615356446071
-0.154466372678092
-0.154414110202520
-0.164049810439850
-0.177434886091123
-0.188387406873955
-0.195487155843572
-0.201665511441170
-0.210939385275264
-0.224799351559067
-0.239254350555914
-0.247379931457748
-0.248097861871715
-0.248874161237819
-0.255949664534146
-0.266006752138017
-0.271057860074761
-0.268563066839476
-0.263731839358714
-0.262983806857405
-0.267612521162381
-0.273567165872208
-0.274754862433472
-0.267082341955266
-0.252533089278381
-0.238669489673662
-0.231033949313572
-0.226692043856762
-0.218264804763950
-0.204070613497383
-0.190563747834692
-0.183165009125609
-0.178355863659740
-0.168312548664005
-0.151082487409878
-0.132802622516386
-0.120702573747689
-0.115814190158958
-0.112736303156677
-0.106107009101252
-0.096061434170966
-0.086062485706338
-0.076921475468101
-0.066043392220945
-0.052243407303187
-0.037804550554027
-0.024725875648239
-0.011750104175017
0.002968589234670
0.017978404015699
0.029776785546406
0.037181281805740
0.041605915002728
0.043445929507455
0.041946755953314
0.039248588414182
0.040683086053656
0.048345871312398
0.056173014855965
0.054930151088062
0.042191158053335
0.023820082418603
0.004875276740508
-0.016156793169257
-0.041446750711919
-0.066605287979848
-0.084032846582185
-0.092370294247243
-0.099007198138135
-0.111896181540915
-0.130601575532418
-0.147330149002896
-0.156067303676762
-0.158471020093458
-0.159938044938208
-0.161644028666425
-0.159374910362037
-0.150683410545960
-0.140282084784918
-0.135712793829215
-0.138696971222086
-0.144522102357351
-0.150544898596109
-0.159799786872068
-0.173334942009247
-0.184934452744445
-0.188759533753011
-0.188934752408187
-0.195785601272156
-0.212171266267870
-0.228269257074831
-0.232921325589619
-0.226241581183438
-0.216715086479457
-0.209937558873101
-0.205789858660549
-0.203739188708051
-0.205307787214061
-0.211581527917255
-0.221231278644328
-0.231406393309364
-0.239371270267638
-0.243228268656673
-0.242767034040675
-0.240813876838307
-0.241964523257009
-0.247734628914118
-0.254220343097788
-0.256663438452112
-0.255154325584443
-0.253555078237902
-0.253452389235282
-0.252188388507501
-0.247428656516646
-0.240378055125564
-0.233169021258649
-0.226054497609484
-0.218680775594888
-0.212365136465439
-0.209683374066790
-0.211096166274158
-0.212228427903314
-0.206935551151844
-0.194434907703126
-0.181396813519269
-0.175253338747857
-0.176257946921319
-0.177130069353673
-0.170214651734028
-0.154465519230483
-0.135564317819152
-0.120317374203033
-0.111673615259868
-0.108234141184042
-0.107486971724107
-0.108972408225424
-0.114194864197479
-0.124438813961382
-0.138737973396871
-0.153364032092725
-0.164870228986210
-0.174004606291366
-0.183747253990400
-0.192774063884781
-0.194472822561902
-0.185559804074688
-0.173257328997674
-0.169209096328331
-0.176978201618030
-0.189145046332633
-0.196240412563707
-0.195841761318443
-0.192530166248516
-0.191270045196248
-0.193028949540112
-0.195622960701975
-0.196103969606312
-0.192428606843034
-0.184446148744046
-0.173723751819669
-0.162596776950833
-0.153086435121479
-0.145580556515649
-0.139306319260701
-0.135841145335691
-0.140444474643842
-0.155977028798207
-0.173189196229714
-0.165488087264722
-0.093851381019824
0.072759036160166
0.326167809422247
0.608823058059130
0.850607408063109
1.012208711448585
1.073421655441510
1.000379765977514
0.774906283351883
0.453284087914240
0.149048567099950
-0.050783124017688
-0.132460214431699
-0.131797381085170
-0.092930871867168
-0.049892152790910
-0.026543066983161
-0.037056012988154
-0.079387023785360
-0.131997412103812
-0.167119141133294
-0.172335085248031
-0.158417366545389
-0.146562532611537
-0.149460724504925
-0.163860640126347
-0.178599736258898
-0.186429190704028
-0.186908616432081
-0.181655821077841
-0.171369414294346
-0.156945415836593
-0.140896482722690
-0.127563460447972
-0.121538392499113
-0.123652126192187
-0.128376925211043
-0.127635286671738
-0.118572544817886
-0.106829448671103
-0.100836572942673
-0.103124977803845
-0.108718663028657
-0.111134534222340
-0.107438868722485
-0.098615564626807
-0.088291751965267
-0.080555145927432
-0.076871658337337
-0.076095559313788
-0.077475150861467
-0.080246944230373
-0.080771133380464
-0.075783861448021
-0.069562012640603
-0.071384577766277
-0.081567634047477
-0.084826368419397
-0.065235104884053
-0.027756614963150
0.002182374480899
0.003729821897113
-0.019317641619048
-0.046279905722505
-0.061950988095549
-0.065767869021233
-0.062139815087128
-0.049748244081307
-0.024570737163279
0.009691887114422
0.040879298132780
0.060250231668678
0.071077321915300
0.082474585872077
0.097871818939676
0.112989622856001
0.121993138564078
0.121263556410172
0.109495810845497
0.088709808126848
0.064385136439810
0.041702425453201
0.022001984750775
0.003294348954193
-0.017808744625715
-0.044509950928912
-0.076935491733358
-0.109825239461370
-0.134636728477737
-0.145128359021031
-0.142677518821097
-0.136509816095219
-0.135504212003825
-0.139444693919900
-0.141128679824354
-0.134828372507538
-0.119554091130955
-0.097088994035023
-0.069677989807720
-0.038659152964051
-0.006049429167112
0.021933562509077
0.038219165544412
0.045688050977857
0.057604386495237
0.080240536630037
0.102106631336301
0.108600663307480
0.101598003163663
0.098963186485581
0.120208244133788
0.172806885650121
0.244404427112031
0.312162142881971
0.368625452548605
0.430108766549889
0.510594655270283
0.600762972789604
0.691474085918254
0.814754008012491
1.035700597856909
1.387448217592412
1.831819570881948
2.299194320984990
2.743898698278060
3.144301885247088
3.478914295305019
3.725784888149712
3.861746750813399
3.853958007762455
3.684976179789093
3.386054145681639
3.016071420562630
2.618882994832294
2.220501147665694
1.844455996416961
1.507935333945635
1.215219150942788
0.964786262250897
0.752929844073078
0.569284251829084
0.400698899706941
0.241521870034927
0.095881982422582
-0.027647925363030
-0.122125884208370
-0.187579038105303
-0.232933590099055
-0.270127397443763
-0.304007403149517
-0.329596802285389
-0.341605509426608
-0.344669902257989
-0.350448747998455
-0.366004923093867
-0.390009473582630
-0.419826603651892
-0.454330395288600
-0.486289488304516
-0.502080693744198
-0.497917787915083
-0.488216688481028
-0.488740943255476
-0.498900029586488
-0.507738967336898
-0.509621079832782
-0.506992704312957
-0.502827935510856
-0.497296665360094
-0.490743003620981
-0.484939464766472
-0.480621104519523
-0.476691982644171
-0.473052898886609
-0.472725808860163
-0.479961606464564
-0.496613248655080
-0.520254294437108
-0.545334042388577
-0.568596450499054
-0.594053943431302
-0.626609614707376
-0.659976194036777
-0.680247382197797
-0.684256210700012
-0.687071153714258
-0.706331397633977
-0.736688385346349
-0.739449652201738
-0.667248144888503
-0.506106078393068
-0.282549851145988
-0.028219480746295
0.232966037953046
0.449166214755314
0.534717917216755
0.440904363995134
0.209183508146927
-0.076222016254458
-0.358303727447896
-0.604145820028032
-0.774804057230961
-0.845163511924132
-0.838860295337446
-0.809958606033495
-0.794058316987205
-0.792177476918151
-0.790791226367451
-0.781946822505190
-0.768533592958860
-0.759481837070279
-0.759760315569129
-0.763111715619656
-0.757018139595738
-0.736780499036554
-0.712673666779802
-0.699562880870226
-0.699396942788728
-0.699271974988804
-0.688931938855596
-0.673843310336661
-0.666793115725565
-0.671460395438924
-0.679642086526022
-0.683255774494583
-0.684029426368451
-0.689494181657619
-0.703118324001117
-0.722416749855422
-0.744567618564983
-0.767702562727912
-0.785738144312925
-0.787217959882788
-0.761841720034596
-0.706787138695112
-0.628559469226570
-0.542237049641053
-0.465337417747111
-0.405812372170071
-0.358492526582912
-0.317711324682595
-0.285825131803817
-0.262506695399962
-0.236094708948337
-0.196716864023405
-0.151308100349946
-0.115908528091384
-0.097052517064966
-0.087356952411386
-0.076160406518224
-0.058934864191762
-0.037294804278782
-0.014461536848508
0.006779510227289
0.024198487279256
0.037998396929354
0.051338140289646
0.066936741847558
0.085350443694095
0.106688656021301
0.129701897266186
0.148718422173288
0.156649603414003
0.153429934070148
0.148639260316018
0.153828351180279
0.171933677987427
0.193176212837337
0.203478884317909
0.200058177541143
0.194566480922238
0.197195947127375
0.204499392255806
0.206811155172742
0.200039318175419
0.186778830933045
0.172284571438881
0.161474924492188
0.155029985912020
0.147601081565804
0.133856403984686
0.116185573619770
0.102965303235018
0.100037552465972
0.105951454939930
0.113162468335818
0.112769469463911
0.101670042828198
0.086978232920830
0.081014935034945
0.088913857654990
0.102109651630906
0.108547832613236
0.107848146796592
0.108563988997236
0.111948534918829
0.109453857494687
0.097274474393323
0.082691908949487
0.073238948824879
0.069268864499008
0.070745129032996
0.080555674216644
0.095169635221175
0.101935117657409
0.093452780844312
0.078790535576396
0.073177408608970
0.078880643337029
0.083602380316473
0.078158210309352
0.067954585961550
0.064664430343825
0.072607891168555
0.085119383526725
0.090683658773344
0.082293357051038
0.063186471558731
0.044708747799733
0.038260222094077
0.046391932190001
0.058742640837863
0.059170770627459
0.041973041648135
0.020383949380343
0.014383432415504
0.029751439972504
0.051888776227227
0.059682996969441
0.043910740083822
0.015157615099721
-0.003663597591915
0.001986251451386
0.020003079694646
0.021420668391474
-0.003075074897374
-0.024747006315566
-0.008055267787693
0.044956186792510
0.095669202920296
0.111956521401870
0.096872100011015
0.076170011909703
0.072547964726074
0.092729398544308
0.124114111840068
0.141103348322219
0.128415280465750
0.102318956300378
0.097506964037226
0.127605463453226
0.168128362374904
0.184618983792363
0.168787242425902
0.140084486573800
0.119755019384720
0.111681205014321
0.105048245522401
0.088672766361576
0.061836556846776
0.033904524591865
0.014053699607346
0.001387926493601
-0.012672110009554
-0.032349290210892
-0.051648390636067
-0.061068893159782
-0.057679755860064
-0.048476000505339
-0.044736348633238
-0.053912102974182
-0.077686743612503
-0.114310921261942
-0.157233180001512
-0.190323213758882
-0.185408205123523
-0.106176377712129
0.075293113746907
0.351071871302412
0.668323424016301
0.962678941319017
1.193820225270252
1.328497833495716
1.314737585226793
1.127163262605081
0.830626634010186
0.546157746948222
0.350247725332602
0.238678008149788
0.176043998103892
0.140263906372460
0.120836445292741
0.107489256624306
0.090799984071574
0.064993736555652
0.030415000788599
-0.004762839639385
-0.030740574260922
-0.046877256061396
-0.062960417797628
-0.087308545497138
-0.115930880283219
-0.136484780240800
-0.140398367943835
-0.126771930711168
-0.099291190398478
-0.068298832430684
-0.051726100555188
-0.062221616030485
-0.093089525539027
-0.122967383187243
-0.133813586751794
-0.123461627165385
-0.104181893380987
-0.090519716375211
-0.087633483166054
-0.090979762376198
-0.094408660726376
-0.095178757124035
-0.093964425564712
-0.094587810368189
-0.101808052436082
-0.115532775175785
-0.128016328631519
-0.130050322735348
-0.121643482384699
-0.114044584636734
-0.117843775694674
-0.131980437795062
-0.147557219178847
-0.157367915693168
-0.158782688475508
-0.153249056125757
-0.145422809343157
-0.138578320916027
-0.130587043900674
-0.116476751221213
-0.092428563482607
-0.056757152393145
-0.012052264537621
0.032411001573834
0.064802012322242
0.079913709536094
0.084007638450129
0.089582496072595
0.104221474894975
0.123914994826711
0.136491779049692
0.131997681935150
0.112584307947413
0.092356853778325
0.083752135230314
0.084534959878617
0.082767355023796
0.072458767312448
0.057775565600713
0.044531992009805
0.035366182171063
0.031728027457502
0.034073052236869
0.040169631236051
0.045879891624333
0.046365393158960
0.036706581266841
0.016001343596328
-0.008219462420075
-0.025258055459563
-0.032605434650155
-0.036781302693155
-0.042587712295392
-0.047461404679424
-0.046339292033396
-0.038029231994366
-0.027712333695892
-0.023749109559534
-0.029561149117723
-0.040348071933738
-0.051301937263009
-0.066607511335883
-0.094340933372628
-0.130640640443039
-0.154773247487182
-0.146926246569872
-0.109295190281801
-0.064993546485767
-0.038548272899109
-0.039635074625951
-0.061295031679002
-0.088931995583993
-0.109406290872215
-0.114181296599910
-0.101326379731581
-0.079081699654706
-0.062723542748457
-0.061429976576812
-0.068840497759789
-0.072400549578507
-0.074355388017742
-0.095457608813347
-0.148090210260077
-0.210199686616705
-0.236642532226977
-0.198497144939782
-0.113345385366886
-0.039154411145755
-0.028999710717757
-0.083912331024444
-0.154517436322005
-0.189057335979792
-0.173932164833872
-0.133447114917614
-0.103433597956063
-0.105573313390256
-0.136133174201034
-0.171622471670613
-0.186437699380123
-0.171512016737444
-0.140123526799319
-0.114701992671044
-0.106166399692196
-0.105755985019474
-0.096940563014489
-0.074037615873377
-0.047769886504527
-0.034112164548116
-0.038677282183414
-0.049534699761273
-0.048640378559718
-0.037360011052250
-0.042685269702111
-0.084883811749414
-0.147738674389907
-0.196530273962889
-0.219570455631680
-0.238537936190468
-0.279223772241101
-0.341071722618095
-0.396857468819980
-0.416339145385831
-0.388152635589167
-0.323347934917835
-0.242670296095577
-0.162297301873333
-0.089364277139640
-0.025552263324556
0.028585738266672
0.071865752937595
0.102197494277821
0.117285812577621
0.117225201058764
0.106020531574066
0.087173416093777
0.057345853489418
0.009333509526400
-0.055673874438706
-0.123272951739647
-0.176478555337719
-0.205301653038751
-0.200897076601314
-0.145737325597670
-0.020426701190036
0.175507491056553
0.419393083506792
0.686789222917886
0.954456253020072
1.165208432176561
1.226307424067503
1.090645156014634
0.824227098447773
0.552978798074738
0.355152122324348
0.232521933073744
0.160683880402512
0.126435020874513
0.122474102376445
0.136175032038882
0.151000923000388
0.152891844592254
0.136663636182772
0.107874463878367
0.076861181516609
0.051171225348145
0.033365967983791
0.022091142985774
0.012566293990114
-0.000442433893058
-0.015949673469089
-0.025206149899980
-0.020968047286331
-0.007421850621680
0.002923362868349
0.001772313005155
-0.009382669126579
-0.023703422485775
-0.033186785343028
-0.033915737338271
-0.035704447978174
-0.058268265489969
-0.105104240467276
-0.147804717863878
-0.150891289694450
-0.110705564134229
-0.059333987647514
-0.030627127121434
-0.029809102151885
-0.036626694027917
-0.031256875941684
-0.011963955533445
0.010003695372411
0.024949200306971
0.030804684256206
0.029240015246531
0.019841409042276
-0.001498364330491
-0.036288702411126
-0.073598786569052
-0.092130514777953
-0.079727324030192
-0.049543172153635
-0.030931040483922
-0.043512363558035
-0.081299674070713
-0.119358151882951
-0.134524987328296
-0.123006054422144
-0.099105450436212
-0.076931638473922
-0.058336386219832
-0.039649057042194
-0.020515415684227
-0.001253343442550
0.019467039713547
0.037835001635894
0.042788573946607
0.029124353587591
0.011239500114918
0.014899063086719
0.050506413038384
0.101564508216487
0.145029510830112
0.173619401835097
0.191453549040913
0.198961700535420
0.192437198966065
0.173477100360251
0.151317562895819
0.135448000911068
0.127113473879281
0.118256152310859
0.100289403454528
0.074273983890187
0.050313986407608
0.037082179834666
0.033989590729847
0.031151364428492
0.013863732814855
-0.027162736091909
-0.082305104231455
-0.123979265812330
-0.130277440491438
-0.106689711286580
-0.079246413450659
-0.068717317148896
-0.075468491261488
-0.086344969990473
-0.090297020630432
-0.085892837444831
-0.077457334255053
-0.068597288868654
-0.061137241686268
-0.057159080479348
-0.057298007884083
-0.057918119685394
-0.055098212589075
-0.050841799080542
-0.049754715857207
-0.050765424563355
-0.048747887068458
-0.042899290794807
-0.037372499980554
-0.035809738644121
-0.039488468151468
-0.047689472641258
-0.057273220142947
-0.064080464959335
-0.065508249521787
-0.061193949029878
-0.052254256340933
-0.041207855747408
-0.032286940797065
-0.028811552938209
-0.029295213030237
-0.030114612258281
-0.031276937888233
-0.032660136892819
-0.026713998299376
-0.005225989893785
0.026261131644561
0.050084879944136
0.055555044709303
0.050464452612526
0.050028890167721
0.058678374427008
0.066660134601649
0.061543977847364
0.039309353039003
0.005782259334577
-0.029142618293765
-0.057309319274890
-0.073794353350045
-0.076688568451835
-0.069104982313705
-0.059727058257065
-0.056909803572903
-0.061375353562741
-0.065646252894063
-0.061077123630692
-0.047501341938931
-0.035902760871144
-0.037149073712013
-0.047867330065644
-0.053945624295801
-0.049865421481102
-0.046768043618179
-0.055803344207004
-0.070001453235138
-0.072211592061657
-0.058952044280843
-0.045600968627631
-0.046237536939571
-0.058532983057253
-0.071542197396587
-0.079526702868806
-0.084998495489999
-0.093986030345943
-0.110259323459889
-0.129683112941140
-0.135656493917198
-0.099563410270352
0.011517017472308
0.220514249212459
0.519285212348214
0.851395152858522
1.122509847095467
1.241081004696370
1.163402417396951
0.920537740171311
0.608118440265125
0.328782283235680
0.130400746187011
0.003957083340707
-0.072590881979675
-0.112179172571379
-0.127623433828649
-0.132435420252651
-0.131683422229246
-0.125181603302605
-0.117200420815581
-0.115666974742236
-0.122462780570006
-0.128800454089772
-0.124145646604332
-0.109867386913441
-0.099354986874823
-0.103061717803489
-0.117930826383585
-0.133450639184790
-0.145002132970217
-0.158924208542442
-0.182516831465390
-0.208018020751022
-0.213572961795241
-0.188327941496717
-0.150338070668584
-0.129865431858924
-0.139598170494625
-0.167008838334982
-0.189793122571178
-0.194058469346735
-0.181892969972626
-0.166570415791725
-0.160435731380192
-0.164104883408168
-0.166765249848182
-0.158696666032156
-0.141640347976290
-0.124244879942549
-0.110702328363282
-0.098676247674999
-0.086581964399746
-0.077883126970974
-0.076934884397577
-0.082677933666208
-0.089848619891418
-0.097930353306679
-0.113659122242369
-0.139501610996792
-0.165508113666612
-0.180094384149062
-0.184662047266720
-0.191148184090137
-0.207075873236656
-0.226488196555611
-0.237321979404059
-0.238574650986280
-0.245409867998228
-0.272664611368651
-0.317297509236175
-0.359625069258517
-0.377267789292453
-0.358076318326937
-0.305560090239649
-0.233899723336074
-0.156885455929921
-0.081976302306610
-0.013288172845008
0.044132070429387
0.085447607691429
0.109822147390478
0.120520302331034
0.120438098935223
0.108794319458502
0.085212353855051
0.056608594462543
0.032529363993904
0.010749624360637
-0.021951207720766
-0.067768634543892
-0.107820065917488
-0.123737262320806
-0.119561258447124
-0.113490891799748
-0.117449127600419
-0.131807014577256
-0.150988689416174
-0.166846903129413
-0.170783136134511
-0.157616396959707
-0.128090073593689
-0.087789757339014
-0.044260779952970
-0.004461258246844
0.027403563803068
0.051004377807293
0.067935484072443
0.078824260390587
0.083428078142472
0.081381627201747
0.071375806594459
0.052476142200185
0.027737840219885
0.005304270089400
-0.005329138884626
-0.001290310833924
0.007603553657249
0.005048783719655
-0.015723159260741
-0.044744250861830
-0.066527065989281
-0.074923161943600
-0.073656152503788
-0.067996586866577
-0.063552488050695
-0.067709797705012
-0.081849905060932
-0.095722912066430
-0.097495372014892
-0.085850347001980
-0.068752328754388
-0.055069398253637
-0.047491077154652
-0.039348977309553
-0.020690154751616
0.010349277402668
0.046295318292049
0.080128628813081
0.110050440649200
0.134830821429352
0.152173612762470
0.164209502133384
0.178029028731724
0.195706028518549
0.208953494624626
0.210981934893632
0.208717670417797
0.212313431009605
0.215710987928519
0.201436417857455
0.166025481868718
0.127928351389137
0.104416914233641
0.089664485721576
0.064487844166247
0.022853013139101
-0.022394914825411
-0.058908787557642
-0.086804674790345
-0.108606378515759
-0.120918023751517
-0.123274107668988
-0.125387003481716
-0.137648590698947
-0.158605543497357
-0.175521460709276
-0.176706455609954
-0.164103030552123
-0.151512344550338
-0.146741730733257
-0.141200734115286
-0.124660417305147
-0.104304658749035
-0.098163263721002
-0.109985808230292
-0.117207534137062
-0.083465377924045
0.022517553206151
0.216611652531691
0.489293002555694
0.792871230341414
1.046585130819480
1.169043291055888
1.118581602597221
0.918611700565370
0.647780854111622
0.389347962291333
0.182505447637522
0.026737303313704
-0.080972749965173
-0.135700621855892
-0.145100988757954
-0.137370371564986
-0.142339278018691
-0.170021900224552
-0.206840082076057
-0.230494307072383
-0.230926523160199
-0.216877566406099
-0.200739629954061
-0.182787557011980
-0.155586779155413
-0.117830932853349
-0.075470544531913
-0.031667008552940
0.014989380129280
0.060100997180132
0.090329252962713
0.097229799798322
0.089180762364388
0.083648905007864
0.088671695633457
0.093901980568045
0.081357917320503
0.046735237135560
0.007057486400010
-0.016974973061302
-0.023016584619552
-0.026264995999376
-0.038794998370040
-0.055809935395927
-0.063784188671107
-0.056857789899574
-0.040197010690769
-0.020472435500717
0.000690238784141
0.025160242222279
0.055118387091791
0.091171142842866
0.131120871324545
0.169853790371683
0.200702801004010
0.218459445891481
0.223052101181726
0.221683185165071
0.227360110377993
0.249463401245458
0.278927485604781
0.289275601000777
0.264347034548243
0.221045000646285
0.193290968591821
0.195738784884935
0.211735364143208
0.216340440328979
0.204377932885454
0.191744091880909
0.193058180051786
0.207507795219522
0.227396799923494
0.247299222722474
0.257818901369495
0.244988768261192
0.210239442289634
0.179966156012845
0.179629055773812
0.205994937419017
0.233582403717816
0.237684135800957
0.209067528123703
0.160764120663047
0.120371756769158
0.103943452895554
0.101055965761731
0.092896453961211
0.076700847017351
0.065013622900929
0.067201338945748
0.077389537875798
0.079639679475120
0.063683329039028
0.035093228300471
0.010927751793258
0.005743799476734
0.018682627452680
0.033771582023258
0.036929226714788
0.030855324712931
0.026998894936985
0.027433515129260
0.025000629335911
0.016961759923793
0.006313105902164
-0.007458046261333
-0.028673384263334
-0.058576075342163
-0.091765172158502
-0.114957892728145
-0.114743894558615
-0.098521993331402
-0.096679439538829
-0.125600607546250
-0.161777489999589
-0.172637261105120
-0.158031681177930
-0.141394781977502
-0.134103296294366
-0.128279873647496
-0.116980134091438
-0.105530459878014
-0.103572229254230
-0.113460943878020
-0.126123029499452
-0.127395705810093
-0.112567540707957
-0.092382992427863
-0.078323385518260
-0.067345386048785
-0.050660004103289
-0.033325503853868
-0.032431779458977
-0.053576332082373
-0.082089850625029
-0.104359459629536
-0.123862134535804
-0.147541217444200
-0.171487075859730
-0.190020131976768
-0.206070191573330
-0.223085989675372
-0.236472741714933
-0.242114011338212
-0.246375412090584
-0.258133589439260
-0.274574194950922
-0.283820051545331
-0.280210103853664
-0.269118666424474
-0.257155164246300
-0.245280342828369
-0.232151746284354
-0.216962818077232
-0.198190995481492
-0.176863479968697
-0.161259975429460
-0.159095753450234
-0.162784805633194
-0.152634603588665
-0.121692179726445
-0.090211994364319
-0.085273813046825
-0.109190986876168
-0.138958351896035
-0.156666596839910
-0.167523461783243
-0.179241212644953
-0.172058299776608
-0.106855616179624
0.034791185570326
0.236118333346321
0.471702596629420
0.717494474469637
0.919664094743396
0.992951184435177
0.891540098841848
0.661969925134031
0.394334411994105
0.145925222209398
-0.060396502770745
-0.199347958224507
-0.251238790659985
-0.235099013993985
-0.198439212397809
-0.172815634387542
-0.156689554879475
-0.138837184716931
-0.121805209656680
-0.117097927409033
-0.126945462199287
-0.140873787540780
-0.149107481726275
-0.151864201673308
-0.154243875956739
-0.157818311168002
-0.160028156317862
-0.158460048790554
-0.152992440935290
-0.145749969421859
-0.141002194410678
-0.142324461249567
-0.146972357688825
-0.146174456282089
-0.135429470965894
-0.122583858178665
-0.119827519662333
-0.127544964721999
-0.132427508735814
-0.123005953181809
-0.101328558744276
-0.078300863640585
-0.063357452590835
-0.060072618619574
-0.066552729808929
-0.077378648342623
-0.087021215198176
-0.092114837878320
-0.090887779141905
-0.083509944383877
-0.074058385843065
-0.068509340704696
-0.068164588971743
-0.066274469270621
-0.052908904360694
-0.023873589878097
0.015019726566548
0.052714360420079
0.081486607322401
0.100749177027936
0.115307476739105
0.132289082327520
0.155866534762398
0.179795438568035
0.188403045375155
0.172150088911819
0.140866489355655
0.114788980822749
0.103076120942276
0.096770656758427
0.082584540975363
0.058353652518493
0.032770059045877
0.013879746484629
0.003726349751009
0.002809716643296
0.011856643428543
0.028264436961526
0.046285220245839
0.060539478164389
0.067367230964530
0.066143472982624
0.060797411363211
0.056803698396908
0.055740526071766
0.053854267913667
0.045509134416320
0.028838153233544
0.009283386147202
-0.004733754295366
-0.011170748271372
-0.016284445101928
-0.026148769089737
-0.039127906911438
-0.047148224452323
-0.043710461801624
-0.031534273648548
-0.020790032059828
-0.018555178331270
-0.022691903783539
-0.025979424484385
-0.022854757311992
-0.013773208177774
-0.006474157230309
-0.010241225304613
-0.026358925157839
-0.048480507755923
-0.073675082109936
-0.105625858920798
-0.143478694696342
-0.175354788656242
-0.189086090262924
-0.184299100205275
-0.168624780933302
-0.147597599919647
-0.124486399571041
-0.104262065878475
-0.088923637914370
-0.070924100556195
-0.039235041535250
0.006109855778554
0.049566353377809
0.072099598200126
0.064992008236682
0.031645052942018
-0.015641706270697
-0.053871532915397
-0.055133785479606
-0.010997451670656
0.051432340049763
0.091513757038277
0.092336364055841
0.068241557161803
0.040945396057293
0.020116182636462
0.007035382803471
0.004445938855829
0.013547041356022
0.025650666696023
0.026214634423477
0.009145922666627
-0.016819442086844
-0.036996692663013
-0.043345220411112
-0.038152590968773
-0.029096876222715
-0.022683247187525
-0.020186990296030
-0.018266587078430
-0.014750912161456
-0.013770755905720
-0.022429372048691
-0.041546785380891
-0.062789363153368
-0.077344867992061
-0.085239031358468
-0.092865344955921
-0.102791296982646
-0.110551417835628
-0.111851550986301
-0.107726737333559
-0.100534088912925
-0.090926860275097
-0.082867806020647
-0.084822502634664
-0.096786049528473
-0.094223985868895
-0.028729965457665
0.144461172840549
0.424312963948794
0.749732111737209
1.041492936203675
1.249644546868051
1.338889630235029
1.259202945586945
0.993283426571682
0.624177983530942
0.292818073972536
0.080106229811512
-0.032757069355341
-0.096943025306144
-0.135033311426769
-0.148161919308622
-0.141956060907281
-0.127710345604826
-0.113420631070914
-0.102182293867905
-0.093528879647900
-0.084733366237443
-0.074698219450846
-0.066925288345262
-0.066846019262936
-0.076763160958457
-0.094750572842474
-0.117806803010295
-0.143557011220168
-0.168496849090196
-0.188890953286774
-0.205991853398957
-0.225659939778784
-0.248944800077932
-0.266870705570432
-0.268384755938422
-0.251618665969061
-0.225003845797229
-0.198313691433249
-0.175037848897932
-0.154018611890706
-0.135153865271131
-0.119996033090039
-0.108545716367185
-0.099042695981578
-0.089984108530694
-0.080773256162261
-0.073014725644489
-0.071869463966433
-0.081641443134642
-0.098710046568232
-0.113444876729304
-0.121070906886073
-0.126533256068144
-0.135883464962839
-0.146482147725778
-0.149983173595323
-0.143107592192637
-0.130515473367999
-0.116730595665665
-0.099970748793222
-0.076485993331139
-0.047809295300470
-0.020811349316681
-0.002432299141751
0.004389814679281
0.002180150816573
-0.002936478972770
-0.006676236597621
-0.009865231408227
-0.015427637004264
-0.023927346724226
-0.033251274934729
-0.041758441295769
-0.050051214618252
-0.058207631492882
-0.062470495188202
-0.057456447649599
-0.041577926551724
-0.018947809410992
0.002839447898754
0.016210167677441
0.017751767188810
0.010967419477360
0.004031600529321
0.003502151019366
0.009570943142217
0.017085870163284
0.021035116794629
0.020837175488945
0.019075373068422
0.016543425806424
0.010329128890732
-0.002207655527497
-0.019082865694106
-0.034619788277332
-0.044426012096670
-0.049576602963426
-0.055680069916905
-0.066541364159088
-0.079444993742185
-0.088246365790035
-0.090218459967399
-0.089243370687370
-0.092027593977589
-0.099632214402639
-0.104501105777039
-0.098843034521180
-0.083732164700179
-0.067823735300623
-0.059297051870091
-0.059957724150133
-0.065636383715780
-0.071302129320354
-0.075101432659005
-0.077690095133344
-0.079513874197275
-0.079779978407966
-0.077698274470087
-0.074225648424075
-0.071543880219338
-0.069895575975454
-0.065758399208177
-0.054437108650594
-0.034882155787061
-0.012537329661362
0.002800772587838
0.004182468658677
-0.006327712642137
-0.019932024691705
-0.029477757383840
-0.033694397265472
-0.034106055915009
-0.031970586206929
-0.029215265588529
-0.028597636825500
-0.030891238227998
-0.033923342448341
-0.035791189713782
-0.037499423675694
-0.041004324965316
-0.045345237603691
-0.045715177447636
-0.036945166416345
-0.019231653544346
-0.000463711295593
0.009703697983449
0.008647886720790
0.001768842469220
-0.003925950947068
-0.005027377602773
-0.003061541871803
-0.003077611593107
-0.009016840800944
-0.019217544064467
-0.028007959202656
-0.032089892400507
-0.033848169809062
-0.038134479888737
-0.047595483477795
-0.061927050832132
-0.079122131381187
-0.093260405289110
-0.087362100423770
-0.028838449216849
0.115991785760085
0.347545986299333
0.617819525268241
0.864646159640459
1.049521418266095
1.140314444865125
1.085778259889633
0.862426833883993
0.538423209395630
0.237721049474584
0.036521709004895
-0.073441431154834
-0.131445872736377
-0.159986892299583
-0.169197818300571
-0.170604819810452
-0.171919876111769
-0.172268813344882
-0.169700014444194
-0.167560258872088
-0.169495757197811
-0.171022816867937
-0.162282111844143
-0.142164626950679
-0.124355456033896
-0.122975040234575
-0.135714590116188
-0.147579289950223
-0.147867944289294
-0.137568462635703
-0.123709216491726
-0.112276295858367
-0.105338877810800
-0.101679193819031
-0.099353841026204
-0.097527716719018
-0.096217463395073
-0.094959383603489
-0.091766262841536
-0.084284162033333
-0.072577506229437
-0.058951374125828
-0.045382664184476
-0.033458722092222
-0.023944719562759
-0.013546584450556
0.003158093277276
0.025495196777705
0.044906376635886
0.054310598556717
0.056408823518156
0.059655307076803
0.066803254542308
0.071812494235369
0.070703470797370
0.069867755217073
0.077152542832821
0.090309570503934
0.101871586608143
0.109562714777303
0.115518411414836
0.120924381590792
0.125803130261555
0.130789653025337
0.137282436041838
0.146085892639103
0.155381441897269
0.161057203470107
0.161212879862878
0.160501135135729
0.167183786405910
0.184434502300162
0.207299399470606
0.228617286630166
0.243969925310331
0.251247875536450
0.251002926623125
0.248193471439277
0.248209213677869
0.249272213080963
0.243110403513156
0.224725662946224
0.197697096723009
0.168874015938033
0.141762733217812
0.116579820825011
0.093348570821618
0.072174162574141
0.051658267760712
0.029567590938964
0.005918921361694
-0.015995022891854
-0.033029881217178
-0.045140507162657
-0.053810886593761
-0.060063574205701
-0.064618934135961
-0.068018278395268
-0.071409831758449
-0.076795051758121
-0.083681242915949
-0.088337333504770
-0.090027865933906
-0.093170535219193
-0.099627441836423
-0.104625623649281
-0.103875041917909
-0.099478084814059
-0.095955460439742
-0.095188049204673
-0.097141413531833
-0.100050993929634
-0.098418779949919
-0.087663569005481
-0.072860560241885
-0.065848680019198
-0.070783025043854
-0.078846344017727
-0.080321380853145
-0.075392632705172
-0.069106705029763
-0.062455871611716
-0.053795795176766
-0.043774713256877
-0.033787311438170
-0.023189618543955
-0.011403309619554
0.000361468216164
0.010516216734056
0.016472068759525
0.014353244907835
0.004332962840202
-0.007568503685589
-0.017495215760610
-0.026889168025291
-0.034319662407130
-0.034325006762960
-0.028452492274824
-0.026552167786813
-0.032616301682269
-0.039433372022094
-0.041565041644406
-0.044232535278184
-0.053317933603309
-0.063526975506804
-0.065456511343998
-0.061401228300993
-0.063176855019384
-0.074114746438123
-0.084452363125203
-0.085815289838928
-0.080400230490308
-0.075524298102618
-0.076557863873613
-0.083769993252313
-0.092037769559030
-0.096931520433522
-0.101232191613674
-0.109539366973706
-0.118042704231354
-0.118044639779559
-0.110301738667753
-0.108357630693484
-0.122987249110491
-0.143484119479145
-0.134285672039538
-0.050032307489840
0.138622142220102
0.418091136241120
0.726029899819181
0.987731879078517
1.159595158184572
1.217336272406456
1.121799510364217
0.854098823932582
0.484660589993212
0.150457693305635
-0.051943128902292
-0.125125550304033
-0.130616136673111
-0.122835659508786
-0.123333610416728
-0.130731070207316
-0.137105204004258
-0.137658297213812
-0.133757200113276
-0.131030217161863
-0.134907567014429
-0.147224221725111
-0.164352185890491
-0.176400168638353
-0.172723602393428
-0.154400527749061
-0.137420159924869
-0.136229018495677
-0.147510209730992
-0.156359894110142
-0.154704840550321
-0.147822608054855
-0.144733648073673
-0.146991299430453
-0.147756161290896
-0.140730980986782
-0.129521486624182
-0.125862270686643
-0.135595527993092
-0.148872675958730
-0.150123195632185
-0.137077137001473
-0.122408690293313
-0.115829698338487
-0.114402661238376
-0.113089035914695
-0.113557028943881
-0.117266907774922
-0.118639645382507
-0.111821067269275
-0.100404483213235
-0.094434938135869
-0.097618156658102
-0.101951495635238
-0.097907588485485
-0.087311663144213
-0.080126884448547
-0.078448655100977
-0.073030512617769
-0.059372317388189
-0.046740336835989
-0.044137723993090
-0.045869898339667
-0.039685955991745
-0.023936230366041
-0.008366122174016
-0.000269012382895
0.003522746511241
0.010875550825413
0.024700166813061
0.040276578267233
0.050849698507848
0.055389887489299
0.060451185567212
0.073137910700646
0.092562633579559
0.109699137957901
0.115732086702927
0.110085420536482
0.100332556286206
0.094430328635013
0.092865502746001
0.088088736722945
0.072323534342898
0.046491054727837
0.020466645845805
0.004083803770607
-0.001531291869876
-0.003989480605260
-0.011792907678623
-0.026343259231440
-0.041164860313721
-0.049077983162556
-0.049847170181856
-0.049083076542607
-0.049593251887402
-0.047455307697821
-0.039848640035994
-0.034452042819109
-0.043839261169064
-0.067521681234872
-0.087493115439449
-0.089304789900856
-0.080712757573036
-0.078961094699286
-0.085802783251659
-0.088674572211158
-0.083067165451180
-0.079387095313926
-0.086767322573496
-0.100429330064503
-0.108771150157857
-0.108032751137812
-0.104874864019503
-0.105290001812768
-0.107042973926911
-0.105397024936205
-0.100766311778849
-0.096842705592437
-0.095156180888833
-0.094628523026439
-0.093543652869915
-0.090399260151423
-0.084603301283761
-0.076398576821489
-0.065527933587489
-0.051639249981026
-0.037505032981721
-0.028894043763557
-0.027581150073345
-0.028166000682135
-0.026244637511531
-0.024951359397245
-0.029149317326178
-0.038710870482104
-0.051674325716018
-0.067833842198413
-0.084328902194429
-0.094379936822363
-0.096519009662158
-0.098626674669369
-0.107059606651100
-0.118710545685964
-0.128738681449865
-0.138630970680517
-0.150354699661674
-0.157300363123202
-0.149683985874491
-0.130527200797483
-0.117941161514389
-0.125145940224020
-0.143709971044498
-0.152809773307665
-0.141605487610543
-0.118620282398045
-0.100960690112280
-0.096768243025181
-0.099927179149325
-0.100606937124636
-0.095528663241070
-0.088581976240875
-0.088724984333496
-0.104984852044531
-0.131223703291191
-0.134962137940010
-0.076553439161022
0.055944243632051
0.247284051003433
0.490553729076688
0.788450323875871
1.098234248852585
1.305108784231003
1.296520044546127
1.069261584420116
0.736577382977805
0.426005540178306
0.193392252233421
0.034358245840015
-0.062484445233827
-0.103706900590543
-0.109347535086511
-0.106798972097241
-0.107912264891869
-0.108892775901914
-0.107814011735166
-0.109795453397530
-0.117770946490012
-0.127649320381263
-0.133440716113834
-0.132929921336039
-0.128757180952113
-0.126665408006024
-0.131598332869290
-0.143537768072375
-0.157168400933970
-0.164986166372726
-0.161745230605305
-0.149496584726368
-0.137370618153520
-0.132296595849351
-0.131187265519661
-0.126167832751722
-0.116015568601736
-0.107175546464183
-0.103228807822340
-0.099785264021474
-0.092216536735317
-0.082029007195248
-0.072029708863727
-0.061165042191951
-0.048550772185299
-0.037147955489579
-0.028338029015419
-0.018216887312631
-0.004774458237835
0.006683908095887
0.011041350497005
0.011393954567568
0.014030184129937
0.019910111383893
0.026242227304696
0.031967141890503
0.037190643653069
0.041207715805670
0.043923132732020
0.046042753448591
0.047482005960351
0.048554527458348
0.051410077586575
0.057287792253860
0.064043437902565
0.069190277769796
0.073709949145911
0.080255116287636
0.089781750092417
0.102221660838067
0.116534938218541
0.127833906675689
0.130309844004056
0.125885031258276
0.123940797198527
0.129939703574586
0.140155429363620
0.148969680578335
0.154208644894156
0.153785821825649
0.144930200381270
0.129494165080871
0.114198578004747
0.103251669652276
0.094589829569559
0.084395930044311
0.071378722504553
0.055852380212260
0.038821829854812
0.022608640409607
0.009079783958275
-0.001429276803234
-0.007948031071292
-0.010852874066263
-0.015972837840155
-0.027924921653172
-0.040526393910020
-0.044393366888169
-0.041869485287407
-0.043644049591352
-0.053068812943556
-0.063009404183152
-0.065953751414015
-0.061403692316239
-0.055985697163773
-0.058261958938034
-0.068790719928373
-0.075801618430334
-0.067754948991826
-0.049388750837515
-0.037645744617903
-0.041799296637772
-0.053899163520247
-0.059712026901715
-0.055224563994145
-0.050153560114891
-0.055434959565823
-0.069430186260148
-0.079077904602102
-0.074210303244961
-0.058116770303230
-0.043091112894286
-0.037729902718666
-0.041116606123687
-0.046767930526458
-0.047481259119696
-0.038847093362611
-0.023120530532720
-0.008297157304571
-0.001050218438543
-0.002065943465148
-0.008023436126874
-0.015121718975022
-0.020655105954101
-0.023487534144611
-0.023706266306980
-0.022562593012719
-0.023283297089132
-0.029668173133019
-0.042861202202220
-0.060863284671106
-0.079238429916707
-0.090459895287384
-0.088206692011613
-0.077113749712605
-0.072447990139980
-0.083702209725968
-0.102354900065188
-0.111860784742581
-0.107858905236292
-0.102520161925946
-0.108025250691281
-0.121404705524516
-0.129709248501438
-0.126869691638738
-0.119842440662732
-0.117393502286591
-0.117961092644996
-0.113657126258140
-0.104162708661639
-0.100571049489038
-0.114188666880608
-0.141905418882182
-0.159507609024815
-0.129918907064446
-0.022838750166808
0.171072158190308
0.438910405793829
0.746038375455659
1.031630137661255
1.211655711166128
1.212356690500748
1.028040044657088
0.739279217842942
0.450103485235568
0.213622170424185
0.034098655435306
-0.084698188563832
-0.132110787209613
-0.123151892384378
-0.101771242886635
-0.101577566818805
-0.118318708841579
-0.127317016592070
-0.119173316298603
-0.109645525795094
-0.115986662962668
-0.133103808468221
-0.139972970466673
-0.126821185558056
-0.107845356861490
-0.103455406166617
-0.115270143765147
-0.126383764080721
-0.124616396950124
-0.115188646357910
-0.108469728713556
-0.106003093676122
-0.103594373691557
-0.099544831428544
-0.093987984097344
-0.085943285510519
-0.076083213431578
-0.068589482045598
-0.067069663063303
-0.071476818673073
-0.079324145922913
-0.086301530722943
-0.087098030746783
-0.079702420257966
-0.067848741727915
-0.057933883517406
-0.055476876872309
-0.062125541998773
-0.071225730988868
-0.070330777680235
-0.055416642361207
-0.038647920064769
-0.033802525731788
-0.038016308918824
-0.037052473083806
-0.025108804475251
-0.009026562089074
0.005039569147255
0.016756512919869
0.022516779807679
0.014906212631039
-0.002876307135069
-0.012920168943623
-0.001644317397094
0.022454412507524
0.037822116198913
0.035428081794610
0.029818184090308
0.042359787166836
0.075187550900552
0.106245506416331
0.113866931888050
0.102523467243772
0.096202731108601
0.107475254986397
0.123896751895159
0.127993476668924
0.119425526360640
0.109881445658188
0.104726578766380
0.099773365796347
0.092166667368085
0.084446625104034
0.077383805554638
0.067074413899747
0.051702452884892
0.034059623683709
0.015252935520238
-0.005684037850247
-0.024087057228283
-0.032087900312419
-0.032038298924632
-0.036514801545874
-0.050258892027594
-0.063162916919578
-0.066708895596766
-0.065943804708567
-0.068585824444266
-0.072868820234835
-0.073317375700763
-0.070378096212412
-0.068254179985844
-0.068980934498386
-0.072234757412833
-0.075462193234622
-0.072723802469217
-0.061621833026021
-0.053066643826722
-0.061077488683274
-0.076918665653945
-0.071412722524308
-0.037270670389164
-0.009724749270899
-0.023247384080223
-0.063981578946839
-0.088802896267533
-0.080280540201642
-0.060471765283657
-0.054692554437903
-0.061669616216753
-0.064366693197969
-0.055943709991145
-0.043884269427201
-0.034846881438755
-0.026377645572060
-0.013183022062928
0.004668788960353
0.020806690986656
0.028406797261164
0.027908251137238
0.027705702758883
0.033364646056186
0.037881638009028
0.029312064872224
0.007667029479021
-0.013736540641948
-0.025275561276210
-0.031802229362324
-0.042909890359881
-0.057803848331756
-0.065268592639319
-0.058610659066088
-0.046745349937480
-0.045803284984041
-0.059811386332433
-0.075550291847947
-0.078916976121565
-0.070903797191911
-0.063719041032056
-0.065619769188260
-0.074617654090002
-0.084647698608645
-0.091726628553850
-0.094145384422490
-0.092875796722498
-0.092350240218809
-0.095327842647310
-0.098282333912780
-0.097596277233464
-0.097643797902046
-0.106966430826249
-0.128301314928983
-0.153193774020278
-0.158589756136592
-0.106321284794888
0.039555647393124
0.278927878591313
0.563886651740242
0.833815302695623
1.049402155626199
1.171905457246529
1.140373672163737
0.926172355502780
0.600961748214842
0.296258351236035
0.092559872561157
-0.019005239482913
-0.079678514377026
-0.112915960316786
-0.129234465580364
-0.139833608795460
-0.150145374508547
-0.155688499324613
-0.152702457636091
-0.146660223941841
-0.146114180533674
-0.151762869329285
-0.156163853069856
-0.153647778327536
-0.146663859612931
-0.141594184285486
-0.141583847037730
-0.144862371906034
-0.147737953393272
-0.147422805160984
-0.142806340993570
-0.135042475758387
-0.128442546836748
-0.127978782240684
-0.134285952163776
-0.143196852635850
-0.149358653503431
-0.148074893253453
-0.137508532511569
-0.122782393324300
-0.113390163615092
-0.112474659584348
-0.113206101660266
-0.109678944348882
-0.105546067073316
-0.106280556001303
-0.108972717647041
-0.106854342822391
-0.099063013247866
-0.089840139785806
-0.082225497706798
-0.077161695305281
-0.075356258908478
-0.075639318123908
-0.073213563352595
-0.063894033972941
-0.050437682080168
-0.041520408048973
-0.042309738885619
-0.046801338704012
-0.042915482457966
-0.026587759635719
-0.006868083944642
0.005012968354563
0.007461817828130
0.006914559789982
0.008925205516549
0.015723777346478
0.028980758371988
0.047567367442499
0.064160684316133
0.071487543100915
0.071854021664956
0.074710899103943
0.084796700282459
0.098235334882886
0.110628159498587
0.122134290737064
0.131777243174873
0.133069865272064
0.121326048542875
0.102495917524456
0.087764896457133
0.079581416744284
0.070024975733490
0.053799549265270
0.035915387262170
0.024188973241605
0.018571516476664
0.011289094859875
-0.002967605108902
-0.020017908336334
-0.031210276392849
-0.033490180295727
-0.031964470708166
-0.032726668054258
-0.035570548711862
-0.036226973549303
-0.033885159503477
-0.031681271663872
-0.030989522070966
-0.030499967907914
-0.029905643218130
-0.030351625489813
-0.032280694923438
-0.035069570614134
-0.037345303576110
-0.037261659863205
-0.034924257974276
-0.034185370885880
-0.038551948292637
-0.044953433867095
-0.045739900292990
-0.039436459855622
-0.035240171488773
-0.041362810972742
-0.052499962754064
-0.056248685184006
-0.049093395597820
-0.038711391519889
-0.033161341529374
-0.033540900044294
-0.035471865731687
-0.034936394078401
-0.032377653189121
-0.030419721146712
-0.028871304046568
-0.024238830091727
-0.013707663281703
0.001713621732687
0.018058853653773
0.030706757712170
0.035460868896248
0.032192369725255
0.028766650546592
0.033487727223460
0.042354608635030
0.043437187922853
0.033989011336866
0.022662272943825
0.015289678591084
0.008972739814230
0.000220396012831
-0.009512980260554
-0.016354168634822
-0.017260530976676
-0.012190740329212
-0.005105645037864
-0.001753696251105
-0.006839790442251
-0.021408510749883
-0.039097379251189
-0.049170455823795
-0.048939548182073
-0.047807613318011
-0.054350043563883
-0.066048680544661
-0.075237521945510
-0.077798905816135
-0.072151043252526
-0.057282879099917
-0.038432283835654
-0.028639553308789
-0.036712134953729
-0.057644293739856
-0.079072295031848
-0.089186217255410
-0.071243770583347
0.004335083503325
0.168143365551422
0.418324397301877
0.702471570049697
0.949924470605934
1.117436263841131
1.181844885878585
1.108231906247088
0.877133865434982
0.542993738142824
0.220868485174925
0.004631042906280
-0.088233090753797
-0.103137078167366
-0.098117728479993
-0.102703787029084
-0.114677325747198
-0.125068820781180
-0.133491923613530
-0.141492515877800
-0.146213300924691
-0.144683637073089
-0.137586682093271
-0.129520441285666
-0.128802328129949
-0.140957129246827
-0.158713023083535
-0.165812215047064
-0.155614995837179
-0.140197037262306
-0.135559453302307
-0.142534710285647
-0.149268003598979
-0.148754438906464
-0.145053810685457
-0.143657849366446
-0.143977298880620
-0.142027936130439
-0.135919761503517
-0.127928327242427
-0.122264261323436
-0.121109648941244
-0.123265800922899
-0.125573751761991
-0.124387495676760
-0.117636292342954
-0.107265643291147
-0.098008950707172
-0.093462510607158
-0.095206645383541
-0.102962794034256
-0.111711008212113
-0.112606086549931
-0.101793495744677
-0.085508577416645
-0.073299041183096
-0.069124331754435
-0.070001361934946
-0.069446113000015
-0.062665953310540
-0.051480350353966
-0.041724142948498
-0.035152184164843
-0.029408720314423
-0.025144432950770
-0.025351041119980
-0.027735981603893
-0.025086705378399
-0.014385437486818
-0.000679310813907
0.009351443343131
0.014985933189519
0.021490061956901
0.032702868241941
0.044464253799937
0.048572633601231
0.044159855677665
0.039954125567802
0.042274295095502
0.046497254301462
0.044387672705405
0.033944708600796
0.017841009632490
-0.001935494422857
-0.022596205787056
-0.037499571479926
-0.041554216074514
-0.040225434793492
-0.046155832155629
-0.063940494186511
-0.084500414702035
-0.097159776000477
-0.101582266329047
-0.105070335467527
-0.112528703469049
-0.122692559117916
-0.131977892206508
-0.138418690851725
-0.141512320389669
-0.140301674276590
-0.134725057247059
-0.129223240086486
-0.130321998409937
-0.138856510091617
-0.147609089786017
-0.145961780676134
-0.126611868356953
-0.092979269120621
-0.060009355202479
-0.041893732082777
-0.039370206966705
-0.042188923704293
-0.041519778698976
-0.036948714352409
-0.033142875229385
-0.032979955480151
-0.034824132637249
-0.035465192182853
-0.035181407201992
-0.038489350671379
-0.046917202326410
-0.053355810074935
-0.050500541756510
-0.042949855390819
-0.041315431636455
-0.045726513833350
-0.046974562834712
-0.043659093310631
-0.044335864539957
-0.050410391204903
-0.050685037673005
-0.037623414369705
-0.017619893487764
-0.000357651437733
0.011947955262743
0.019967397731211
0.021218782790051
0.015307378384522
0.009521788636561
0.011222925868207
0.015907910217667
0.010892549901116
-0.007386231272070
-0.027498594207021
-0.038146826307509
-0.042233179784598
-0.050073239760897
-0.063503761000412
-0.074477096631214
-0.077688912963329
-0.076755960704687
-0.077626214766368
-0.082178257659719
-0.088459178613190
-0.092818876271748
-0.093040122730935
-0.091799355188913
-0.093407591469503
-0.096321777805852
-0.095592791571706
-0.093043836972810
-0.095651036671004
-0.102351390974817
-0.102717745662928
-0.092430261189273
-0.081489841720041
-0.082122197878477
-0.094369251136266
-0.108926821803067
-0.120422704171167
-0.129337674195036
-0.125294322907815
-0.071415735013636
0.079474237439510
0.336181029266565
0.641648695084057
0.911999676243920
1.094264300310629
1.163271679525085
1.088722062671787
0.862563349166947
0.552578466504923
0.271804583350548
0.085655789606494
-0.018233265997547
-0.075700635626904
-0.102728799942790
-0.107630763146588
-0.107756520611522
-0.117255153652517
-0.133638755111117
-0.144916620170971
-0.143132068217690
-0.129859829637299
-0.114795988058020
-0.109018631092313
-0.115261757698530
-0.126209322386517
-0.134328972591264
-0.137896169145685
-0.136214994616917
-0.127962847596951
-0.115567449614543
-0.103883235129221
-0.096523909070753
-0.097965394757337
-0.111457165359509
-0.128642711276981
-0.131652598138813
-0.115122809033421
-0.096258034019966
-0.093058551672742
-0.103445667428595
-0.114436788317221
-0.119208382419200
-0.117723136285774
-0.110978932421121
-0.099374104858918
-0.083129092610877
-0.065719120870523
-0.055126283359308
-0.055192429745208
-0.059591336408509
-0.060398258534671
-0.056321634722385
-0.049813239565089
-0.044632461772305
-0.045746657882282
-0.053013808341402
-0.057044032365901
-0.047872770766381
-0.025040733273297
0.006001428910209
0.042852827879119
0.083581934255944
0.120319488839499
0.145513641434143
0.160077101128527
0.167311011968126
0.164178897034492
0.147561908497330
0.128100705004681
0.127021497611754
0.152259442829005
0.186752921491420
0.208957533887582
0.215225537121509
0.214862641856949
0.214674310627508
0.214886493981399
0.211458775050337
0.199965418442415
0.182996679587030
0.169584023696024
0.160365193747910
0.141891768256497
0.106984385978835
0.072573742294714
0.062546695438004
0.076483583715882
0.088131363376460
0.074898321321516
0.042037517497285
0.017225376350774
0.021821208225670
0.046105761051198
0.057723199366210
0.038652807923296
0.005069097950290
-0.015664211624498
-0.017018093294675
-0.013693748264113
-0.017126080303689
-0.020434989155789
-0.010905826911907
0.007323866159277
0.014158220891127
0.000160775911505
-0.020239100599538
-0.029317576833547
-0.027239009765575
-0.023040592881373
-0.016881709128327
-0.004939414957403
0.005406385844400
0.000220442804954
-0.020784789609947
-0.039817313321989
-0.040522300900610
-0.023414103261504
0.000863358314410
0.021976879862590
0.028996826683841
0.012981102446259
-0.019343839718419
-0.043054701214901
-0.038061028952988
-0.013557730798805
-0.000463757161164
-0.016010275484126
-0.041338416269599
-0.041096383333309
-0.004420829109310
0.041448718689229
0.060585011781322
0.043518828553211
0.011014223561029
-0.007364948391339
0.004255912225531
0.036412852533411
0.061551944570221
0.061084187565717
0.045838290588177
0.041088284762963
0.052560802233001
0.059709572121425
0.045732897519908
0.020690038284012
0.006111168484843
0.007055790308388
0.010419453540289
0.004945242457240
-0.008616709167171
-0.025200114806213
-0.041666185850544
-0.054495878407249
-0.060635432098872
-0.062096509099177
-0.064222192264070
-0.069866764589713
-0.078317373387718
-0.086815288809116
-0.090323757250834
-0.084957798905364
-0.074888199120068
-0.070195886505812
-0.075496981143384
-0.085489615598946
-0.091875966185507
-0.090569966029805
-0.083315271263353
-0.076533073925315
-0.078775463140229
-0.094183507811289
-0.112440713387179
-0.104162149744200
-0.030346329159671
0.135248485527414
0.381772377517686
0.658272933738763
0.906039834737585
1.088762522390227
1.173608599080050
1.107750964925038
0.866835620197791
0.521375672389970
0.203778051861373
0.002597274838424
-0.084865008832619
-0.108139681929115
-0.108176920548063
-0.105107388051605
-0.107760681363775
-0.116687082393931
-0.125276756984611
-0.127677427116735
-0.126126771369002
-0.128954367715274
-0.140462683242526
-0.153070715541081
-0.153305235222256
-0.137002540382811
-0.115027476102593
-0.103092584828666
-0.107965120477293
-0.123116276635877
-0.135704110557260
-0.136636738719120
-0.125345565313075
-0.109438311850198
-0.101855279240802
-0.112666791582857
-0.136949078291293
-0.153975837296178
-0.146713359119707
-0.121421331447938
-0.100951058268694
-0.099141228539971
-0.107702093689764
-0.108051618049947
-0.092568257029018
-0.074334348379974
-0.073763018356193
-0.092614701616447
-0.108587276831706
-0.102588412432327
-0.082257086402778
-0.069671259229847
-0.074054224286973
-0.085667493092503
-0.091295939427138
-0.086585966224511
-0.073493387684841
-0.054841863489495
-0.037076556269663
-0.030360636084936
-0.035622201408507
-0.037102732875773
-0.020697576140300
0.002851897032605
0.009034847273792
-0.002768588806318
-0.002320688459326
0.027779362504520
0.061902787906403
0.065809319757959
0.044142641764280
0.031161630989664
0.045125457668697
0.070328390270443
0.081376018218059
0.073640189760386
0.064102187400439
0.065556384973331
0.072005629066385
0.074209565665559
0.075754611641226
0.082193291170203
0.085370724259833
0.073995949363746
0.053709974681386
0.040501842260749
0.035002147303969
0.019690544399723
-0.011962451521379
-0.039112521022971
-0.039582604994825
-0.020548675303699
-0.009174508895600
-0.021166345091625
-0.049369818961184
-0.076025641518679
-0.087375106974732
-0.082153505591074
-0.072778674709022
-0.073267296126034
-0.082625371885484
-0.087293574142271
-0.081307278746686
-0.073247899774980
-0.069625850470267
-0.063562587125633
-0.048883529686935
-0.036292170271905
-0.042272308406646
-0.064549067851281
-0.081966879199030
-0.081489768114404
-0.073104989761073
-0.072047619306817
-0.078846910340668
-0.085655283173655
-0.090008481866460
-0.092347622303048
-0.090255520861631
-0.084493921734149
-0.083185167457314
-0.091123081549929
-0.098863580307077
-0.091722445771706
-0.070396116756688
-0.053853061014755
-0.057609481589218
-0.076587213641413
-0.093522370823356
-0.097368761145209
-0.090573848736611
-0.083092803298762
-0.080594775351090
-0.078048379726146
-0.066172520899709
-0.042630822383815
-0.015580719962129
0.001443061941083
-0.000824077190739
-0.019173798335927
-0.040818081823870
-0.055381075921335
-0.060637726292842
-0.059322165897946
-0.057145547505600
-0.061362561786461
-0.075221622873867
-0.094670770485604
-0.111851906066478
-0.120500723512931
-0.119695053699057
-0.115143282839825
-0.115988841835008
-0.127669566086173
-0.145998574667173
-0.158873668942165
-0.157001635096029
-0.144305126535354
-0.135077664215357
-0.138788138689011
-0.149995249532745
-0.156037753314414
-0.152048067980316
-0.143712228472112
-0.137150302156469
-0.132596066532216
-0.129298308200741
-0.131503213483186
-0.144670194307876
-0.164218905661274
-0.169002323508354
-0.128538929878383
-0.021441261164833
0.149986476585154
0.367348600954587
0.616711680113326
0.880092736760517
1.096238036040735
1.166890930726446
1.041382383464347
0.775512224184530
0.476192300111361
0.211560873666502
-0.001194116540375
-0.156859454025179
-0.252269757893237
-0.298523401475459
-0.312128954273117
-0.300234411532264
-0.267654884635479
-0.227611462837565
-0.195110139826879
-0.174846879247201
-0.161313168093307
-0.148845105977465
-0.137057013668864
-0.127139429129453
-0.118570766108625
-0.110273309277172
-0.100922050668981
-0.089427902756250
-0.078131658103871
-0.071399675159412
-0.068070290495295
-0.060655776609181
-0.045362890390997
-0.027600308704754
-0.013648475558887
-0.002810968225563
0.006221838894366
0.008329281408622
0.000588692882731
-0.008419047197927
-0.007929361965318
0.001686699529883
0.012150614017519
0.017775364414759
0.017976287215566
0.014802208625826
0.011033971442575
0.008339634935053
0.006596266792571
0.005485815873412
0.006210432652072
0.010310996493036
0.015751843920382
0.017087188749914
0.013867054649587
0.015340983719194
0.029758161569557
0.051721361006055
0.066277307670696
0.063546289454051
0.048311452678499
0.039119034637304
0.054420454110375
0.092573046607676
0.129215552000798
0.141067616558614
0.129197394183779
0.114529189089582
0.114839225785810
0.130992164917559
0.152612413662336
0.170641178242491
0.181269982189395
0.181776685954631
0.171423256510047
0.158137208612068
0.155256875056527
0.166421558096582
0.179367298631515
0.179888201729666
0.168224471292960
0.155444785061159
0.145912504324162
0.132442434353882
0.110134107860877
0.086080975350298
0.071278022930096
0.068414515590116
0.070438000228537
0.066312747218932
0.048003261091770
0.018691155949350
-0.008338292602688
-0.026592222314501
-0.045323581091480
-0.073383919185388
-0.103810232740955
-0.123417107727755
-0.128893435688697
-0.125730917584574
-0.118708142394840
-0.110548474498066
-0.106124891126662
-0.111809979682038
-0.128040750575894
-0.144009646358347
-0.145752894213556
-0.132404799072218
-0.118697949061999
-0.117577307381788
-0.125741797589620
-0.130637706899230
-0.127182572832791
-0.121085873504008
-0.116944988325382
-0.111991224378086
-0.105128730799442
-0.103528712362696
-0.113752759495817
-0.130994978212522
-0.142086636912563
-0.138643341881226
-0.125295128097615
-0.113348941059905
-0.108522746592301
-0.109135629907586
-0.112280584101897
-0.113956696355366
-0.107084890154475
-0.088676056549890
-0.067057784094384
-0.054470124952266
-0.052457749214561
-0.049999381821854
-0.038215947236181
-0.023022117813346
-0.018593287214244
-0.029504390187216
-0.044703511369902
-0.051104205160163
-0.048942846712437
-0.049719541618427
-0.061381717539545
-0.079700972870648
-0.093520768293309
-0.096513094046363
-0.093961570864960
-0.097323834621504
-0.112039574875118
-0.132461395076024
-0.147610808280575
-0.149761857146421
-0.140087215432319
-0.128723207709321
-0.126743938810907
-0.135539690159389
-0.146071557228172
-0.150154608096305
-0.149346632358580
-0.149825722387936
-0.152373368503240
-0.152738663643534
-0.148978049647747
-0.142901517191148
-0.136969983511392
-0.134385766931631
-0.138875775686872
-0.149499343241005
-0.156272120369972
-0.139917793631738
-0.072553615060101
0.072521629094920
0.294542185886565
0.550393946718335
0.781995309368788
0.952241865391678
1.034889139806447
0.990785131929296
0.800281566193688
0.514024268541722
0.231442706489881
0.027134722180401
-0.085116579852440
-0.131930109235256
-0.146361335055107
-0.148435366829358
-0.144329486808350
-0.136884604939297
-0.131944705014632
-0.133919442446458
-0.140080998195192
-0.142997843703088
-0.139161939062206
-0.133348777432437
-0.131493861181830
-0.132144382953440
-0.131311130108255
-0.131036621185399
-0.133148445126031
-0.130234968553639
-0.115743249722683
-0.098564151064975
-0.094309402645891
-0.104214191552517
-0.112879672313553
-0.106488304449556
-0.087961053550913
-0.073419619578754
-0.074397200129114
-0.085513044361096
-0.092515704450384
-0.089547259221315
-0.082935150048722
-0.080040157531318
-0.080661909991930
-0.079497623925859
-0.072665797611980
-0.060785643863056
-0.048135368155047
-0.040047619343876
-0.039346750497644
-0.043085172119039
-0.043439913880951
-0.034495447449448
-0.018455658555984
-0.003745084049374
0.002364589453215
-0.000293863115793
-0.003614587782922
0.001826471850688
0.015759371020901
0.028672363998096
0.035367728564890
0.040682036265345
0.049102592009796
0.057323718680170
0.061628641953510
0.065614241261399
0.074235591895625
0.084391807847861
0.089710996600007
0.093152221402889
0.104074657092311
0.121435078496428
0.132326652567409
0.131319281480100
0.128872054644278
0.135148554274916
0.147105175401015
0.156893145373009
0.161999531063310
0.161172868923711
0.150367446855590
0.131412341910547
0.117639799016107
0.119833412415691
0.129219242396058
0.124653433138274
0.097518071870342
0.062396462204795
0.041143827515515
0.041313833147556
0.052777163672624
0.061071461221268
0.059529787351766
0.051194862859288
0.043865090092827
0.042493595011389
0.044726418296172
0.044891937359302
0.040380572401724
0.032518599167908
0.025403770196152
0.024738921973328
0.031991084732954
0.039031679280368
0.035719051426966
0.025374050446495
0.024313126046379
0.039955465961507
0.058693512216816
0.064108985110138
0.057004402592578
0.048030923411506
0.041734855742481
0.038421760987504
0.042134131859608
0.054924377554424
0.067806298451099
0.067911815035161
0.055069436080687
0.044627003847743
0.050705403450423
0.068842020416767
0.079651856603580
0.071891634097775
0.056811950074398
0.053668447019779
0.066028989955741
0.080814498597596
0.086703669718128
0.084833436866812
0.084188652905034
0.092955715191126
0.111421600503513
0.129112766142104
0.133078846555792
0.122699219186390
0.111377824103885
0.110120957988260
0.115690370595809
0.118775026217905
0.116854109673853
0.113793297816480
0.110987534078684
0.105372882502901
0.097738409447698
0.095686024283592
0.100744908372339
0.099900982991794
0.081513350443150
0.054738387211960
0.041306658539095
0.049440340397154
0.066233022419724
0.075707141972228
0.072595010985136
0.056495290204413
0.025373926323369
-0.019342238152191
-0.067840831913847
-0.106548378959276
-0.127723587318635
-0.134498432425515
-0.135674969132287
-0.136440936284919
-0.136942533468477
-0.138073154025823
-0.143969650268827
-0.159022779005203
-0.183389251722731
-0.207214479170477
-0.205330051230309
-0.139826242850998
0.020971618119154
0.271059988999710
0.555125474968267
0.803527931157146
0.974576294795309
1.044449279210228
0.978597030847314
0.762699656094191
0.457197592256957
0.174527582149351
-0.005843995540036
-0.081510869250156
-0.098480711535880
-0.101100036267768
-0.105734655017803
-0.106871095926973
-0.099510684299844
-0.090814004021102
-0.091613913141367
-0.104411835802444
-0.121787588774299
-0.132315083863728
-0.128433984869910
-0.113145092523339
-0.098931812906737
-0.096912812349506
-0.106640443227432
-0.117091256808753
-0.118208868723839
-0.113011703866138
-0.117041263676337
-0.143091851617473
-0.188335409599367
-0.238264577201426
-0.279501117836681
-0.306804713376199
-0.322070136881349
-0.330843825839568
-0.338977336749605
-0.349211527236162
-0.359551477792675
-0.365007123278428
-0.360603338869316
-0.344598652529177
-0.321279353875622
-0.298087064071466
-0.276891992333166
-0.251604509910050
-0.218130611421377
-0.182934888885375
-0.157037320205566
-0.142966115071826
-0.131405273094676
-0.112159550590597
-0.086813458342005
-0.067507329856380
-0.063992226639015
-0.075956905930124
-0.096347479779965
-0.116362139717602
-0.128606218729019
-0.131092667735540
-0.127346453882484
-0.120004862503636
-0.108933214587493
-0.097875440797118
-0.093838792728244
-0.094926676578525
-0.088591935431632
-0.068438024930730
-0.044369952564986
-0.029584764368119
-0.024196439647724
-0.017803939571812
-0.003079357469540
0.018556780392214
0.040189366329460
0.052865153274900
0.050213661260754
0.036053030836206
0.023985962832306
0.023573349854153
0.029890717990365
0.031369735608827
0.025091904073398
0.019562541498672
0.022533759339488
0.030068247861113
0.030955017348025
0.020522130081703
0.005958080362152
-0.002369877928357
-0.001837294022539
0.001387228112126
0.000893268126899
-0.003336320038757
-0.008609691457613
-0.015114745278075
-0.022470213072994
-0.025649871863011
-0.021061826665325
-0.012674919710785
-0.007632958986078
-0.009432962047675
-0.016563715580907
-0.024161934105935
-0.027316807607596
-0.025203303810058
-0.021798964324362
-0.022019377577926
-0.026378942362028
-0.029490509774656
-0.026994395281353
-0.022917910091285
-0.023857640731806
-0.028336554689933
-0.029987035908214
-0.027223870805146
-0.022257509810925
-0.016403650918922
-0.012400020928419
-0.014770372684699
-0.023745515214310
-0.034365983406479
-0.042615136386661
-0.047931837793533
-0.051046993346551
-0.052305635822149
-0.050515315417338
-0.044289101486353
-0.036497522517613
-0.032628570242818
-0.031267370716369
-0.022617822404355
-0.001798219296658
0.021764738189660
0.034269309726592
0.033724498856520
0.030761600333531
0.034163615679391
0.039913383799128
0.036979624986205
0.022422817958882
0.005947017338401
-0.002196081916363
-0.002900715141582
-0.005004747708782
-0.014610017332426
-0.030356343489365
-0.045493682040697
-0.051923358794435
-0.046022745018717
-0.033629976348519
-0.026840120473295
-0.033291227660557
-0.048665180202629
-0.060844014870267
-0.062542367452748
-0.058326757993128
-0.057063707893458
-0.060462815648530
-0.062766756338374
-0.059707806119539
-0.054868248563701
-0.056411195599472
-0.066892257796918
-0.079042109208939
-0.085625966675919
-0.090333254809363
-0.102095857667912
-0.117347194338650
-0.109863116163882
-0.038662496981091
0.127849534101870
0.382106300229512
0.669816799837885
0.924448758651160
1.105284880278138
1.184959580399760
1.122541975820209
0.897959770629212
0.568675421904308
0.248619686351329
0.026749275832492
-0.077718765295819
-0.099419347644256
-0.090834888659262
-0.089775682185366
-0.102384094714194
-0.115016976910110
-0.119344140024865
-0.119720655625380
-0.122458406782852
-0.128254767931430
-0.134569836251602
-0.139851690928922
-0.143436875067200
-0.143060800204116
-0.136267571672927
-0.125056301180171
-0.115102517314423
-0.109454554979474
-0.106957824897619
-0.106067825820397
-0.105126039589330
-0.100420991109745
-0.090145170591398
-0.080583049353977
-0.082394857309657
-0.096927829347921
-0.110488863044033
-0.108281842900114
-0.091410508927086
-0.074154199264401
-0.066878102984070
-0.067354942908608
-0.068132213643786
-0.067185836941032
-0.067061812421192
-0.066012997076207
-0.058774844866844
-0.046739192422911
-0.037987863546014
-0.036035307043969
-0.036391367692172
-0.034794036862503
-0.031973081239272
-0.029043474267658
-0.024449454325184
-0.018224225625756
-0.013291939195488
-0.008898006319164
0.001144801472677
0.018972656711122
0.035525283765403
0.038661063894508
0.028805198298784
0.020817693776630
0.026844094590712
0.042817428166868
0.056459342346460
0.063393170687066
0.069827724092733
0.081972764754654
0.097795937214513
0.110093832153044
0.114780184232755
0.113229279217643
0.108850269349761
0.106218644389270
0.110413546506474
0.120266273346306
0.125649824462278
0.118482818709630
0.102290071200357
0.085311974178311
0.070342992527083
0.056386921471791
0.043664711901405
0.032587341041155
0.022198399314268
0.011553773541762
0.000894889391508
-0.008082859341001
-0.013768701298734
-0.017757709884631
-0.023886858840381
-0.033235624772854
-0.043204968350532
-0.051356161542759
-0.057771330828214
-0.064540155170119
-0.072763286202214
-0.078043465383918
-0.072292154538488
-0.054706282879887
-0.038011539471871
-0.038418265789695
-0.058743760683856
-0.083167470028167
-0.090445333969868
-0.073912114308385
-0.048551410800776
-0.037494520688505
-0.050483988731043
-0.074407788652828
-0.086178756512052
-0.077515625982405
-0.064426397594870
-0.067263697316578
-0.085362796143690
-0.100030895966471
-0.100411499760552
-0.095249809587543
-0.096346079772945
-0.101153616393814
-0.100347700819266
-0.095417547866831
-0.096793106344614
-0.106775027235245
-0.115252932073139
-0.113286591525637
-0.103440277294470
-0.095214971007054
-0.095331598480474
-0.103400087381611
-0.111457047717801
-0.106149892594082
-0.079956330315415
-0.045638439993310
-0.029687257163732
-0.041797792701758
-0.059908693207807
-0.057301239962259
-0.036803485741572
-0.025422878627886
-0.039804379934103
-0.069417637972491
-0.093612519360749
-0.104168057759347
-0.106418427078907
-0.106139274926636
-0.104861657171545
-0.107300711204419
-0.122651051250439
-0.152341571929119
-0.183849845076245
-0.202816834786276
-0.205351037160263
-0.195269835440377
-0.176227548818366
-0.149853582756327
-0.118554626422464
-0.088783660783863
-0.069476764552009
-0.063502591264262
-0.062564494185247
-0.055631329803190
-0.040766749734875
-0.024453025023252
-0.013663491082769
-0.014832812595251
-0.033663558725957
-0.062863839991053
-0.070576847274108
-0.012620214653077
0.136200616101588
0.360350546266737
0.614331843850488
0.857760138149293
1.067566453146535
1.202381674559490
1.186266818980387
0.977092174082138
0.640229148546227
0.311080568859164
0.088868525832356
-0.013437948915234
-0.039926093881491
-0.043342384037797
-0.054340459606207
-0.073213091388529
-0.084637373474952
-0.082799784521566
-0.079016114217232
-0.083239097103564
-0.088461764501774
-0.082603800416665
-0.069035448053457
-0.064678716446106
-0.079227991399506
-0.104170923762680
-0.123235567660331
-0.127637562915659
-0.120321981466207
-0.111241463026999
-0.109499099557650
-0.115517607509523
-0.119908711363168
-0.112885013208868
-0.095441646004250
-0.078402538501917
-0.069961766501533
-0.068898910420203
-0.070664878920286
-0.073034805347034
-0.074211214798016
-0.072475168206892
-0.069723269734643
-0.070527227632593
-0.076087571105134
-0.081866768667821
-0.082668055146367
-0.077480840960467
-0.067465611124721
-0.053597306899469
-0.039745478399297
-0.032661563110350
-0.034055384057866
-0.036748765117195
-0.032350733971037
-0.019699964515314
-0.004010616296889
0.008963954907115
0.015587012420109
0.014271097549743
0.008465428729581
0.009144378875796
0.025744719700952
0.051422759956214
0.065672554720174
0.057481503923641
0.039882934153416
0.034953463341119
0.048736302341498
0.068518097213369
0.082157279444131
0.090495498876053
0.099538736728187
0.110252627738578
0.120937534440602
0.131873565205938
0.142237012102589
0.148337227650439
0.148354492392703
0.143962684887901
0.136749412853702
0.127786042275792
0.119140968695348
0.111040098225446
0.100149880966462
0.084553886712524
0.066413482592260
0.047535875118273
0.028473590421422
0.012371742015650
0.002027533691085
-0.006053572447101
-0.017615480902178
-0.031993441540103
-0.042153687236158
-0.042269882278882
-0.033728514019525
-0.024263635213207
-0.020612724488187
-0.022754376418194
-0.026053044459933
-0.025341860211458
-0.017335850122323
-0.005543284579168
0.000696560872730
0.000165369730307
0.003243493994184
0.009849162558845
-0.000606407879891
-0.037316585175378
-0.069909676420139
-0.058766582718209
-0.009328220347912
0.028083396871811
0.015234470454551
-0.035901044614026
-0.083975447927059
-0.097954731527015
-0.072246244148850
-0.021712604737759
0.026883363126692
0.045892838954360
0.021630180870459
-0.032726398311379
-0.079835948665438
-0.085756192184303
-0.052268775103645
-0.016459981046676
-0.012894184459845
-0.039256485994667
-0.063456069995786
-0.060717144397333
-0.035547843405307
-0.008292118744992
0.009321073455733
0.020427898235475
0.031231827853686
0.041046574318321
0.045655430342510
0.044639087508510
0.039814464759661
0.030067652266440
0.014711119464517
-0.000302349325126
-0.008040519117315
-0.012957155186284
-0.027733862775916
-0.052994916107213
-0.070569714496051
-0.066704806584184
-0.053676103446662
-0.055910326679676
-0.078686878560893
-0.101874164694542
-0.105037867396618
-0.091238524779771
-0.082519776181753
-0.094895107849681
-0.121798054598312
-0.142138061129028
-0.142385586426696
-0.129809360021454
-0.123153600648571
-0.130942674970815
-0.143116228145440
-0.144656916909018
-0.131672336326033
-0.112244787390268
-0.098105955855296
-0.099447276809887
-0.120269154069873
-0.148188351161889
-0.148696945609855
-0.077829836666881
0.090552163053512
0.341150861480887
0.619247077835060
0.865262997836119
1.044262073316730
1.127598121853297
1.068832243883120
0.845782767892224
0.520344167025778
0.210999171662943
0.002228054250234
-0.098594649564548
-0.130365963384081
-0.133114876501345
-0.129593822706265
-0.128130191672246
-0.130033945260554
-0.134021769576530
-0.137530965421420
-0.137507528977011
-0.132905725000063
-0.127160813796925
-0.126859241179786
-0.136873544458801
-0.155194184370596
-0.171720320564027
-0.175445562404378
-0.165395867039560
-0.151601253962944
-0.143778115716038
-0.142506116896229
-0.141947618396140
-0.137040128575760
-0.127018442497643
-0.114832251457247
-0.104539376596200
-0.097827090896534
-0.092730455901258
-0.088050579543595
-0.087872286951772
-0.096698208262235
-0.110952209993465
-0.120894718477644
-0.120549299205832
-0.111719658671881
-0.099588757654162
-0.088303709371994
-0.080274939378724
-0.076043363393751
-0.074115681106039
-0.073427428403827
-0.074822691881227
-0.076531422137742
-0.071845180300633
-0.057703684194668
-0.042267140945765
-0.036597866974403
-0.040361857469387
-0.042438659318480
-0.035679424508376
-0.024838891045178
-0.018012564419255
-0.015506877441738
-0.011152379248021
-0.001606494219411
