-0.103321701542877
-0.489124840899667
-0.360070640161446
-0.438530912840976
-0.377171463338138
-0.423440752160859
-0.365130179026654
-0.357895962001036
-0.294077335231443
-0.282800607824675
-0.214218199087370
-0.209897192966346
-0.202632957656253
-0.183072823186307
-0.122608551883820
-0.066887007921692
-0.007296788777443
0.022012595078248
0.065795085636603
0.052113834321956
0.050329005877416
-0.004966109686115
-0.064498051512620
-0.171881793812117
-0.226285951553187
-0.338206740364441
-0.344143643070453
-0.381157274828652
-0.352632507198530
-0.377120163677947
-0.350026788901699
-0.387217090358087
-0.384102840832451
-0.413927319908537
-0.389904442496458
-0.412040191313780
-0.386885581316224
-0.378480273403751
-0.342357826008783
-0.357241815187121
-0.323838972122479
-0.342717825134219
-0.235628956087402
-0.181885958223592
0.137357158845746
0.332186983092061
0.880900301097908
1.371446060463600
1.782130593681028
1.864855509285434
1.630127767233563
0.720411595713560
-0.116451447537314
-1.000257721125824
-1.703341842473677
-1.860579348349231
-1.873451593050237
-1.626134313629843
-1.337384938637472
-1.003309473932748
-0.798298804770891
-0.511309079921771
-0.449755863022204
-0.336660564840221
-0.316282751830687
-0.284052728426717
-0.283499099424986
-0.251454866480714
-0.258798263541186
-0.216389716564469
-0.166098253181768
-0.098861431952722
-0.091525217375475
-0.042943831676382
-0.061166306914924
-0.043403674748699
-0.043667648152589
-0.025178078221133
-0.001639860278121
0.005433272162444
0.028628990051909
0.047654961638998
0.039492235876709
0.084654575283275
0.097583351196480
0.121651884360401
0.120781041595089
0.124720827077964
0.119516213051466
0.122494107754508
0.138998484388245
0.182631324775561
0.231103623807314
0.268492342692444
0.310995853456689
0.358445418770956
0.358226118575682
0.398638666602201
0.440871623353563
0.461320722595190
0.509721755174498
0.545968378561054
0.581275746609557
0.605373713682499
0.608873545216392
0.623784540407052
0.633129173830512
0.677093043107903
0.697318781652255
0.737585925951085
0.735791118928249
0.758057449779304
0.713847167766366
0.702229178406993
0.642586828119425
0.621121774541331
0.565936316786274
0.535051718231919
0.451345701798995
0.374062596843309
0.299613972786261
0.192901584967164
0.132151634612944
0.047115726490607
0.011188442715096
-0.033373945458045
-0.064401255754872
-0.084571547988559
-0.105322320044221
-0.128263489785674
-0.144438546737851
-0.156287057936406
-0.177824565936765
-0.184628492760130
-0.184295517502556
-0.199587167631885
-0.216043948464432
-0.228804983025890
-0.248429824170812
-0.270926075879475
-0.286458000642066
-0.276082645348879
-0.280669283674665
-0.248998899121708
-0.241770148841861
-0.212169985315901
-0.206606517668767
-0.197935056299207
-0.187550674157378
-0.173336658115568
-0.155245524256921
-0.156613414864450
-0.154190120429844
-0.153543581699138
-0.151580765977046
-0.151605529696908
-0.147414318082568
-0.163323604235757
-0.174459240753910
-0.183157294163995
-0.181381410274497
-0.156504173780284
-0.139276744780961
-0.123918115450903
-0.124188836648676
-0.136421941251513
-0.131352681496897
-0.117832951996364
-0.121818460857523
-0.127616924916784
-0.163662710796846
-0.158309819251271
-0.182614386224546
-0.156487226376205
-0.116688529792816
-0.114186168999730
-0.113927080527676
-0.115804245143676
-0.131009827273337
-0.158217716775198
-0.170142217605844
-0.150353381297060
-0.145558819900585
-0.123866998207347
-0.159627243265438
-0.158690869442195
-0.205372432103737
-0.206042359719575
-0.211090921579622
-0.203942970050416
-0.210637725617337
-0.186078811673161
-0.195922830826616
-0.170587974852191
-0.166279170515374
-0.149628530726948
-0.181733129172192
-0.188129618639348
-0.204000622574330
-0.197363396342848
-0.198014927104653
-0.186457272856306
-0.191429237445689
-0.186133711267672
-0.204638569956247
-0.204995348804536
-0.207898171942018
-0.204974263270242
-0.201607297530458
-0.171907408126934
-0.125635678525401
-0.089260508206906
-0.035183994830209
-0.003360447175600
0.057022513931815
0.115962091452382
0.142740070621688
0.205342879737396
0.208081923099174
0.205120485098834
0.148561382553292
0.105868447010913
0.007302054880604
-0.048519486200084
-0.173460493132089
-0.207182508619963
-0.268920888626132
-0.293684333780996
-0.299429215504095
-0.293635722074081
-0.325244520691430
-0.320531854288787
-0.347871760171816
-0.357751566262437
-0.385179043665995
-0.391735852313533
-0.420851128736360
-0.399664819688162
-0.424323539364200
-0.414828194822939
-0.465778753374893
-0.428750028855087
-0.421719619130056
-0.224143063390348
-0.054593930517342
0.320912685274406
0.806010447428567
1.249845527934863
1.758315253670485
1.864951735986282
1.418208537545150
0.741736195505035
-0.128895715214551
-1.277878629743225
-1.696406300088536
-2.094059730142222
-2.089628708005733
-1.898949033672125
-1.576122300631366
-1.370175619452197
-0.965538325102682
-0.808639506885030
-0.640509101741992
-0.558328246369381
-0.514895504385500
-0.436821791903700
-0.392537241165035
-0.351392980201634
-0.304635134275337
-0.293086087387826
-0.256520467652922
-0.239110208899280
-0.200660414988706
-0.180317860129160
-0.160257759178130
-0.138717672137859
-0.124286428449229
-0.107483389347769
-0.107829920749554
-0.086425732303181
-0.069490188313966
-0.067059322634698
-0.045974860005393
-0.027151328125106
-0.006349342365099
0.013693485423186
0.032531175137533
0.056069682185741
0.065391236183879
0.091162109152923
0.118905338230023
0.136026985141334
0.170541341040806
0.184860326287912
0.225280776670734
0.251448846394799
0.329810014292726
0.353629570480967
0.418222806024363
0.467754567516655
0.498982646965084
0.552748584019092
0.581574265896671
0.607796123506778
0.637694511615895
0.650763750392132
0.645478067907883
0.629352986624921
0.627336353194612
0.629903802015549
0.640504736637318
0.648582929721027
0.666036917032413
0.668104409592684
0.666445798097336
0.650348632363322
0.602250195465483
0.558650061097063
0.490683148315104
0.450343009442523
0.395844014972149
0.374676651219958
0.378327299327706
0.383714549490591
0.407520460306178
0.395999771884983
0.407713226189771
0.359380679800778
0.333276194193917
0.303534729869980
0.265154761533149
0.241764046625931
0.179570127265389
0.164776039394648
0.123790206769668
0.073177161962762
0.065433354810762
0.065815565634902
0.065856109864115
0.066459758090469
0.065687124170520
0.068015915482747
0.045168589897029
0.008731365251277
-0.007010561689789
-0.036212297661223
-0.051762570451664
-0.042919531036113
-0.040523381718109
-0.040811448958162
-0.040916562326289
-0.039795238915313
-0.041349885844029
-0.038211984632832
-0.054866058301928
-0.054703527348980
-0.066651471309378
-0.082628883057328
-0.090190418617131
-0.099747107499521
-0.100913279445708
-0.125271885007702
-0.096596642167734
-0.098173979593359
-0.064304639798757
-0.050096982336918
-0.016920621111003
-0.014996529178860
-0.037323874046444
-0.042596861812157
-0.057067404062572
-0.055267561525130
-0.056772860480792
-0.055402660297138
-0.057020006123969
-0.055387589754032
-0.056944634592148
-0.038762616166948
-0.041888039122743
-0.036870164580699
-0.067889371403529
-0.093080575898749
-0.125295107105865
-0.143054786086068
-0.161226948288070
-0.154364841938615
-0.120757619648297
-0.128393902981867
-0.123182584821985
-0.127486775590007
-0.126977818757047
-0.147715228830418
-0.164577984923884
-0.174809463763092
-0.185450299193501
-0.188579885802404
-0.173472703485166
-0.169861702384232
-0.147634848708481
-0.135717698810485
-0.115794234420874
-0.099347894087115
-0.069156639575855
-0.075660125681362
-0.111684552489715
-0.147453940909919
-0.167944177231997
-0.172652498038525
-0.130027259257348
-0.078318036982234
-0.053655116558361
-0.025268769622158
0.003856049467539
0.039292559780466
0.100041737396787
0.157686388655839
0.237326095466488
0.271758980872782
0.279767790475668
0.257302535121760
0.212009017507206
0.142205054100657
0.083985634560736
-0.014151648272116
-0.077952712648431
-0.124084850206263
-0.193885911648305
-0.195488251226721
-0.199618591839675
-0.183152996893577
-0.169969046031807
-0.149797434327413
-0.156006045730509
-0.149870081176540
-0.182202092445085
-0.199557239435254
-0.229754300686957
-0.248632522324507
-0.259863088932201
-0.259399641590433
-0.255385094125838
-0.239655186354962
-0.154155917032786
-0.009512880152494
0.173739805204218
0.620306296293853
0.937564513156701
1.598151286070869
1.999656803439272
2.045778257887168
1.689778857132403
1.098311775953958
-0.125064968117291
-0.814686459997618
-1.449298399596060
-1.762868355569439
-1.735136219095822
-1.565350330043500
-1.387817020608037
-1.053162837855358
-0.822338290887619
-0.621991955372386
-0.424315121872602
-0.385027562272438
-0.332950578399224
-0.305943315152145
-0.259886395417854
-0.244006957771988
-0.217729359491693
-0.164963470216526
-0.142895159922075
-0.109404937960363
-0.063151374184253
-0.035306140872714
-0.021170039919857
-0.014340769398517
0.003450189327093
-0.008118965829621
-0.002828510685005
-0.009644850664187
-0.009687494529643
0.009978317502999
0.060151439164628
0.073576402204168
0.124274262799244
0.152096962063575
0.157217388124486
0.137949154245336
0.162623992936491
0.202849646029172
0.230199684687822
0.263279318705647
0.313289049926271
0.346363011582395
0.368205809903885
0.421663518167587
0.467039009078204
0.530798268297766
0.593019665042959
0.620471916663210
0.658134978897508
0.692245627199001
0.747912775766270
0.783776344693046
0.845148854134868
0.891235163862470
0.914084520341540
0.924717651187374
0.932970791775456
0.928579360039118
0.920884336219884
0.903679975327334
0.909950005700192
0.896081531168235
0.905190335384590
0.870810965079116
0.814545575193636
0.733215363404052
0.669232016741900
0.567286470887033
0.505897356721241
0.431738834143553
0.362269954573667
0.317551697017513
0.224331839354452
0.175878443711014
0.108318630793656
0.037932877508480
0.005261607164352
-0.048673142073293
-0.047394844201691
-0.045532758511177
-0.056941951820761
-0.070945513243633
-0.060885703995614
-0.072467200072337
-0.085724282926220
-0.105692644241783
-0.114471498556307
-0.106670532560116
-0.090623989901533
-0.091833653438771
-0.093737942119942
-0.106036588715728
-0.111766581828022
-0.136949183025513
-0.134473579366166
-0.120396265061318
-0.093155634464975
-0.092695947656098
-0.087489869679865
-0.095723586525813
-0.121245027715357
-0.151815246159912
-0.149407777226233
-0.127088481153051
-0.119514612278051
-0.112249089910186
-0.110444194048619
-0.116031732688722
-0.119841223294417
-0.152583184631204
-0.163589738492679
-0.179890883057601
-0.169628134738972
-0.173372650506830
-0.143869232458601
-0.131800054055907
-0.129465842704079
-0.153814453471515
-0.166017649681086
-0.182579526414568
-0.200036431225666
-0.202087811251359
-0.208762622249556
-0.213336917711695
-0.192101081900971
-0.200067766364770
-0.192082114730459
-0.192741650515138
-0.161970949372504
-0.170963712339966
-0.160598875064545
-0.169303408793855
-0.183001488075568
-0.191424105364455
-0.181993996993122
-0.189396115591305
-0.179954032206373
-0.187982636230615
-0.177292830834650
-0.189697943392125
-0.192925167550807
-0.209536907027173
-0.221209853600843
-0.221123698622390
-0.194138688901519
-0.193867017377024
-0.172195643115200
-0.181448768521369
-0.151866654286020
-0.152626365805842
-0.146104356435952
-0.153614551470845
-0.142743099154132
-0.162745379134590
-0.167591116186763
-0.147644063642847
-0.129133040272178
-0.116576816057256
-0.074260251511947
-0.048415594127848
-0.016014497919414
0.057218317149729
0.092755999504548
0.165889139660603
0.192218007895526
0.207211256085761
0.191744472732361
0.152721283146244
0.101330433031087
0.063601726333931
-0.017009338019419
-0.092760907597221
-0.126193359968375
-0.205919098624808
-0.229907779203766
-0.255904443485696
-0.253268103775198
-0.268959265124628
-0.234811316400735
-0.229982918776031
-0.216833892433249
-0.229835654251362
-0.217689948489956
-0.253668030611142
-0.254793496116113
-0.272850830576157
-0.265102723014328
-0.304451228949301
-0.267223777214582
-0.233005646507177
-0.084731182667823
0.010650453543438
0.396310866365735
0.633318438758035
1.196294521245672
1.654615892423287
1.900463370560893
1.738356448645169
1.306119639076534
0.315631613539396
-0.496167470186490
-1.096041664111277
-1.577122171592169
-1.625120692351436
-1.529461092832516
-1.353870768829078
-1.140824309595840
-0.882595408198503
-0.721305821076642
-0.494749131067400
-0.453697866777895
-0.360676732160000
-0.344017757761210
-0.291777658591185
-0.274353637596197
-0.225136829533574
-0.204717524487601
-0.171464297978562
-0.172356721836224
-0.121862500693559
-0.117268835354780
-0.070532177091557
-0.049850601922306
-0.022840092894029
-0.038456764028621
-0.051275988111794
-0.059374058397843
-0.053655272445868
-0.043058874122489
-0.025653824295436
0.011244911522340
0.057639968115564
0.049336283635516
0.085186305731748
0.096706241501180
0.113135101902926
0.141290712360640
0.177467954544899
0.211704852409827
0.231232184916249
0.275821881208322
0.308518401857419
0.333010244143923
0.385150182783845
0.428468366187169
0.498323572639509
0.519989711155101
0.582344419088648
0.612953255275199
0.653010694021189
0.682860811307991
0.722062639340641
0.773244659445073
0.808526497556102
0.822295228783393
0.856265395600228
0.839341197277826
0.847986570894981
0.848188749143526
0.857723395060781
0.832083423042197
0.823910419482408
0.778330941230237
0.745184949637138
0.686831278434035
0.649007458139350
0.572313818791986
0.510793128722926
0.465069498273542
0.398689680382222
0.345063745650147
0.252376518510833
0.182950824738251
0.098948271522907
0.018733071185094
0.001714706732491
-0.043411665939116
-0.043998131418359
-0.047190733998597
-0.038812837905318
-0.041264789456162
-0.046707264544351
-0.071990412666337
-0.073831139930950
-0.104933735109588
-0.078628125575838
-0.070206634496091
-0.058341065053986
-0.076344515636915
-0.082895496460168
-0.128327230557883
-0.138080279259486
-0.159060908901108
-0.145655965484627
-0.125058288893159
-0.106656573480299
-0.085201765129055
-0.066515513931099
-0.066042843543624
-0.061143935923058
-0.079064067122466
-0.071843516204144
-0.077402234571811
-0.060504794392434
-0.055561541336699
-0.031776077498892
-0.030281654462665
-0.054142919856544
-0.098552325533232
-0.098568701237847
-0.119632924907786
-0.120885591430068
-0.121693785861120
-0.095742564501755
-0.091934935108520
-0.110523573608221
-0.115700201514250
-0.092547993604005
-0.083273514564546
-0.065639190270343
-0.072336705020455
-0.077184698528939
-0.096608512873518
-0.131590046478526
-0.166106765687427
-0.180678644663806
-0.177067697718751
-0.174690159023428
-0.176317071118729
-0.156775901594672
-0.143838374086806
-0.141908378259187
-0.123649230201047
-0.125161939606571
-0.121618522564439
-0.121638855343216
-0.118867805316133
-0.118685734886582
-0.115688946060532
-0.116746007567759
-0.093378968923782
-0.086376750624840
-0.084967722531171
-0.116739058044375
-0.128967567428688
-0.151089275986555
-0.169461242780292
-0.158682449518713
-0.149014101867529
-0.152854661283000
-0.166268482517431
-0.176035924879070
-0.205289755426857
-0.220155835027443
-0.202483860291511
-0.184743631665302
-0.154673731222343
-0.120770056426536
-0.084388797945716
-0.057041702131363
0.002470242747575
0.035622955973619
0.089518695924174
0.123477763918739
0.141416277454145
0.138972047047740
0.113493421109265
0.089725851203924
0.049631903666953
-0.021427078168786
-0.134853108016250
-0.170414051199096
-0.257747916706044
-0.257424448415401
-0.268521797139002
-0.247781718479951
-0.260390415139061
-0.255096502016308
-0.263395776063233
-0.252085642262365
-0.262669433831155
-0.233467639447093
-0.257784903223069
-0.263864251496626
-0.337066317063360
-0.333179366038444
-0.384823935596786
-0.370177216034470
-0.371848664685280
-0.245804331635287
-0.173769693215095
0.147819952443628
0.400916874563681
0.923995423387245
1.478841740821176
1.767866243972217
1.749544787700694
1.403068609583813
0.499573579083802
-0.449998563241208
-1.063541813012467
-1.698639902804130
-1.782998250107053
-1.718031209817920
-1.529803641381573
-1.336759688213430
-1.061083063882517
-0.920683421554040
-0.701530365979392
-0.642296146476448
-0.526843988783151
-0.482658827974212
-0.405751769116862
-0.364398008245118
-0.329246492757249
-0.302092354318083
-0.267167299454867
-0.245547152184435
-0.195970697011719
-0.190953266382641
-0.153572886666879
-0.163461945735475
-0.149461321272493
-0.165797280582732
-0.152811269724493
-0.167180564233138
-0.131595966865022
-0.145718160226514
-0.132789118627873
-0.133271233246106
-0.115850339647406
-0.100287792272180
-0.066373211095666
-0.027897176306463
0.020891521520998
0.042890072170697
0.072117128759875
0.092180195693078
0.128401735240221
0.167351426115718
0.204687353665286
0.205158992023861
0.262406349891073
0.307419382271589
0.347376915173975
0.385414680404831
0.454716088672134
0.472517108259146
0.506488909619575
0.554110658352826
0.590227983684341
0.634479596669759
0.685397103155296
0.700571803099999
0.730528430307689
0.746310894030104
0.777246196243046
0.790525869332421
0.793763288851971
0.803891478875175
0.814200719137344
0.782019473399303
0.742192637939182
0.689181523639861
0.645706993759360
0.577904224187260
0.520975660315216
0.479056301307894
0.406041168318872
0.353583085938546
0.280547877761807
0.214288146905193
0.172688794596791
0.115788133148896
0.096744216600335
0.077525124063305
0.062520470354588
0.057041707786994
0.041695580861164
0.033084727164460
0.036084210052111
-0.002651925285961
0.002446401192521
-0.027043535078822
-0.040480356987907
-0.037859002302911
-0.040106647082876
-0.060026355874833
-0.073295394915295
-0.099480316465522
-0.128690481526169
-0.130333446741783
-0.121909390218129
-0.102861072809735
-0.081947758584903
-0.080723481936151
-0.099034114256292
-0.105237401861137
-0.101885439927808
-0.079444319053025
-0.052570066280898
-0.059497337285483
-0.051188411185865
-0.057645475157751
-0.089477061140538
-0.095041449971986
-0.088933880231363
-0.091445837154562
-0.088008275177546
-0.075243287653592
-0.054675239615145
-0.067592700511394
-0.090046164681142
-0.111195777633142
-0.139757321937368
-0.169120000815718
-0.157421639631321
-0.167702366143617
-0.140937101721379
-0.119202147724619
-0.113727226944290
-0.118626190760340
-0.109572736144738
-0.134217714899084
-0.153616912826193
-0.159427930374418
-0.174383134267984
-0.195810530971321
-0.190259255783276
-0.194181900856250
-0.188260627299187
-0.193307688288836
-0.185409023754810
-0.201491205213767
-0.203592723116435
-0.207240110971680
-0.191847535312432
-0.187124423080574
-0.181033434476442
-0.157960604488289
-0.168202416873497
-0.201377623176680
-0.199309840353901
-0.202223563485705
-0.187074300620359
-0.168828526486025
-0.136506448892954
-0.147159837844462
-0.155086547775392
-0.159633065299764
-0.153733517380242
-0.160395844146749
-0.128516714431927
-0.114028934957996
-0.113095616590441
-0.099613932113261
-0.095832769448581
-0.100097887515978
-0.088751925987535
-0.036640209624051
0.011441795285539
0.075663166358100
0.137268646004841
0.144355258246274
0.158212990196271
0.150141621038777
0.115187342356693
0.058827858656678
0.032340098966855
-0.079819616868690
-0.148593271616433
-0.255585551404954
-0.304525021176974
-0.368864277993219
-0.403286663752799
-0.410793065921913
-0.403590449289338
-0.412086969490859
-0.403364541356126
-0.413981876035680
-0.390928101082724
-0.396636679606821
-0.389363954333949
-0.380230435603543
-0.361282339021582
-0.379069878524141
-0.362518364064028
-0.374232494296312
-0.287483140440875
-0.233666222413605
-0.006079083857810
0.253608863134445
0.610221964334925
1.176611990079621
1.570333565058920
1.869584101057427
1.831061562083749
1.293350753948606
0.390464652640006
-0.354850974727966
-1.334661554526880
-1.669606603176903
-1.861921420192043
-1.757452883227108
-1.554814872280582
-1.231070209106347
-1.023541754486067
-0.723265393046253
-0.593572908972661
-0.493406794514160
-0.411904406259738
-0.381672902150205
-0.358752870313775
-0.311476183154848
-0.269184187853647
-0.223037021021778
-0.188987456481873
-0.136824242244970
-0.128397572718607
-0.105648496253713
-0.097977588396403
-0.076635311025966
-0.060010018415177
-0.034747446637992
-0.035945755052466
-0.022085046518082
-0.016884250599230
0.002736802478499
-0.002090283067753
0.039376215337938
0.071255101049743
0.075292653296129
0.085050896852549
0.113633209722648
0.143085899955191
0.150324905849029
0.180629577464463
0.203499273806885
0.225058003650516
0.244339696345127
0.284744694388187
0.334508989638086
0.367844524054695
0.415842911060898
0.433155161919008
0.445263527502746
0.481715785916404
0.510584938946030
0.574335204950433
0.622376584589787
0.667446524977430
0.707448425518303
0.722154685306277
0.782869895848812
0.792116794178282
0.823280049850440
0.799311839543571
0.808161804478394
0.765527869481251
0.729302933851607
0.690738700020719
0.676220717886204
0.636723176604420
0.608379199947695
0.574726498661897
0.519699140488752
0.483563177343903
0.395665565817222
0.347231699207039
0.263809809258770
0.199480356263367
0.172905246599630
0.114659512951952
0.084436695681559
0.031601637004427
-0.029621276088170
-0.060610152540456
-0.096766281790305
-0.105240164833890
-0.101593124232203
-0.102580834545123
-0.099041769711112
-0.113461206189973
-0.115547084567814
-0.114679797018317
-0.112299178216506
-0.114258098487971
-0.084602861655101
-0.085416935104928
-0.096375749613710
-0.089656940332464
-0.092980112177190
-0.088774511068917
-0.090766130259383
-0.087614792761732
-0.088356560713616
-0.090958833350714
-0.111099858935006
-0.126698766230427
-0.128213917736564
-0.106748470217569
-0.088729817921452
-0.056501761494697
-0.048672026558842
-0.053602478256685
-0.065331475552464
-0.095503884849891
-0.096495589042614
-0.095647551747468
-0.095064978127008
-0.094914104918975
-0.092906520530563
-0.098361993276018
-0.119038251573645
-0.122296046686155
-0.137352722744037
-0.130895036490410
-0.135233577647207
-0.130544841711973
-0.134207233122979
-0.129881437082499
-0.133528842608671
-0.129039631150128
-0.133467340294461
-0.125660096697170
-0.114678221538199
-0.128890570908574
-0.129891890931367
-0.141608845033811
-0.165635769448663
-0.169697587123306
-0.174262444598749
-0.193157994812140
-0.198770169048428
-0.193746534325970
-0.199253397903876
-0.175570043082604
-0.161426066003778
-0.126615456413313
-0.133426600744658
-0.124711744320792
-0.142776000950500
-0.154588931770124
-0.158909389860635
-0.163655661371945
-0.156508659259374
-0.154925900631803
-0.158959790205610
-0.154115706269890
-0.162055161297443
-0.145178107319962
-0.151850874853644
-0.167864734677856
-0.187548257194513
-0.203310752358015
-0.200733914160927
-0.162471079741808
-0.143189989100766
-0.090778638525731
-0.050033742445096
-0.007327634999600
0.065687064434852
0.114561674558893
0.181081479757843
0.207787914594303
0.210991923891132
0.177558351641638
0.128701988577969
0.062522443488568
0.017557783054830
-0.054330356575046
-0.127296175832278
-0.163015140625462
-0.210850152132779
-0.224603454834782
-0.240455096880972
-0.259653531812375
-0.296618870468723
-0.315060065385071
-0.322162490892032
-0.311636202537905
-0.347229068093204
-0.324942663940242
-0.333158293625350
-0.346216706160363
-0.353453608660744
-0.336794952114221
-0.342226369130293
-0.326178855002133
-0.292291335418501
-0.166997747502053
-0.061740039733319
0.335346842564708
0.613489346511255
1.201056519728238
1.691126992923156
1.877855800949564
1.624654987050453
1.179490925098169
0.058496699604949
-0.805432414597424
-1.450339460142572
-1.935484822441208
-1.922252144785602
-1.733018429921898
-1.513846401602641
-1.235095263120340
-0.907825394495752
-0.755445939170092
-0.538352463015246
-0.507950661542272
-0.373324600138112
-0.357000446835387
-0.290719746317646
-0.281500698921005
-0.240389703916051
-0.222261140896287
-0.173678158144558
-0.166733797715927
-0.142205525271925
-0.138988735060369
-0.108460813635693
-0.122083500910554
-0.086273211194095
-0.082864793304022
-0.065868154483519
-0.048599035318983
-0.024166266388294
-0.023667214058868
-0.008172548573018
-0.011258668040422
0.014137324125388
0.007706540515266
0.042233530826485
0.049131046867299
0.071267881381380
0.110473402578178
0.157449803364581
0.198837945427193
0.237387329549410
0.278153667372010
0.295350871459932
0.342892236730227
0.386379240120983
0.415316286885567
0.473653783847758
0.498107277988021
0.538894084678986
0.563490200027975
0.605307458636983
0.628357826674546
0.674593400386799
0.709605023594390
0.737251782432151
0.752869941682813
0.782083246265217
0.805652296625221
0.829448439834241
0.825752922361068
0.805831650191800
0.775147352669945
0.749072840082995
0.728348956364581
0.688603862545469
0.633768922442287
0.603299774306983
0.539812205543895
0.455123330940515
0.387974503429071
0.306331395153888
0.265113468996315
0.186989022047861
0.151187627229401
0.096334626794931
0.035539066717640
-0.011648321582872
-0.070475646077853
-0.082693276747015
-0.115047749035890
-0.105029020016092
-0.111004946398999
-0.114167270574002
-0.129836171247822
-0.119097693690557
-0.128297713847235
-0.117749479209813
-0.146978428737975
-0.144308024419294
-0.156256763736913
-0.162804117313430
-0.165695847693588
-0.160051585598942
-0.170268908870531
-0.186387293478677
-0.165331094210348
-0.160523130716229
-0.165119293136112
-0.159226718669517
-0.184697537612187
-0.186807624861270
-0.189946705171274
-0.166690738151632
-0.161883603956514
-0.146093410695887
-0.147337076881274
-0.144511649572112
-0.153122953725801
-0.168795734722267
-0.191468659763933
-0.186759197835733
-0.193343233400812
-0.173699867543395
-0.163871614350806
-0.165889338008284
-0.166305525232519
-0.165839765313494
-0.185582622393640
-0.204428316556993
-0.210141143516258
-0.214709253736480
-0.238565234277215
-0.236421107069114
-0.219548360148034
-0.210764026866337
-0.211868793828593
-0.189163725414407
-0.175114583221023
-0.156834183092119
-0.160597771756529
-0.165697327598690
-0.191164441715455
-0.205579012699601
-0.226846581938567
-0.205959988960048
-0.175090935409186
-0.168123389328683
-0.158162059836523
-0.143318824086465
-0.176809698513839
-0.157816210067776
-0.147888524243682
-0.146978421190776
-0.152370923045156
-0.136490298828171
-0.136288798217925
-0.137156634005855
-0.120637102268935
-0.111458766139870
-0.119717935232243
-0.114983468904612
-0.122697965560408
-0.117852666345312
-0.124983221319807
-0.087235242378686
-0.070120378880863
-0.034996404327795
-0.014729738257919
0.029141311681370
0.058833932107659
0.087461918066510
0.186386495978660
0.256544430088696
0.338441742816336
0.375559185010929
0.378163860402353
0.368366047855656
0.328628584526559
0.261552039543601
0.213078674031746
0.163130614968928
0.036479108313662
-0.002743746500087
-0.082341571062665
-0.105952116331751
-0.144778354730356
-0.129083584262715
-0.146106529008821
-0.131655549324479
-0.148443018283431
-0.135422753252883
-0.182876326116761
-0.209297164864049
-0.282935303972303
-0.280956993792688
-0.326727617495252
-0.287029873274213
-0.303922933128231
-0.285553711630546
-0.287461727724973
-0.147195667440000
-0.073397500149929
0.297381627222978
0.597105248297818
1.150069646986194
1.736256857879092
2.083281738516091
2.030726468380625
1.646818315202226
0.676146783799829
-0.359835029527318
-1.045596284391837
-1.725144625095947
-1.836665770247463
-1.785466623385216
-1.561541268261775
-1.328259883560131
-1.001770228622511
-0.825810977666585
-0.506805965912642
-0.422431480993340
-0.280239056828986
-0.235284511131739
-0.166484999669600
-0.151670084011897
-0.110085867522297
-0.090462442711761
-0.057251544253770
-0.079896302097908
-0.043595811137813
-0.056452335648951
-0.039202825116840
-0.023462012800784
0.003951294659120
0.018964127572366
0.031536191060305
0.033774094603053
0.068999568888874
0.076856386319215
0.110257980547987
0.123500167279603
0.166184191329662
0.168183042570284
0.184464210278146
0.186230983389685
0.228961197120972
0.241679494066176
0.278565095715113
0.331353600078009
0.352456683044786
0.387327326477851
0.419821606414925
0.460720747314551
0.512926046508511
0.536443392908189
0.599234514556796
0.609576238948264
0.652557446690701
0.674831066130465
0.732769966711208
0.788114600999668
0.837023360862520
0.888476526006565
0.915649279968791
0.962497828762439
0.996246867633482
1.016820905896169
1.013347128843123
0.999151229671922
0.992072354336264
0.940793124665414
0.905550699713166
0.861991173465506
0.825336190110674
0.736308174226504
0.703276091774049
0.650692442228942
0.571076186479447
0.504016443738863
0.410804745233168
0.363586556336617
0.289946991639284
0.225512588995853
0.181467069775297
0.123298325285670
0.108587916893066
0.064461794589651
0.046167447276173
0.019833609870454
-0.010885057902113
-0.016081911687792
-0.024283556341453
-0.047222293364621
-0.048535585558837
-0.047439542735863
-0.042380102232415
-0.052576520432589
-0.058597111036604
-0.041443629402308
-0.034403757760746
-0.035241856120064
-0.029671235220523
-0.039866229348334
-0.046286429594125
-0.039962289430159
-0.054019550373760
-0.042110130085221
-0.034080731489804
-0.035536489759837
-0.030924484471367
-0.045913794729584
-0.027670843977810
-0.025235981698239
-0.045686509652080
-0.068319895131406
-0.058042256391966
-0.081882832372566
-0.083251128975179
-0.081107466486989
-0.080421028257008
-0.063042170687709
-0.029993043330838
-0.034697284109263
-0.026361892023805
-0.035276157298029
-0.047061494444670
-0.069331080410185
-0.077815854314076
-0.081212792485146
-0.075682208447938
-0.102415373965085
-0.092299386659358
-0.072201125031114
-0.094509676081124
-0.089659150019401
-0.063487596536130
-0.066885105219278
-0.060848600934290
-0.063164996765986
-0.057247451167804
-0.077656957381884
-0.091621421692162
-0.097721101083813
-0.112361339743531
-0.122087495554453
-0.113043180035060
-0.120501084217938
-0.129317589382623
-0.129577394198292
-0.126544215629207
-0.124908810574365
-0.132819044548236
-0.148219368532004
-0.115224453177461
-0.125117008348734
-0.112311511626281
-0.135437042998864
-0.140186579194293
-0.141076129846236
-0.136221965614343
-0.138976987450725
-0.133446039072523
-0.136592203147944
-0.130945576138938
-0.134234632934362
-0.127789503500606
-0.084386410252808
-0.036443598202156
0.012642252477323
0.052096353030775
0.102368875949586
0.146138516645350
0.159385961936683
0.175139181860946
0.171024789955629
0.152230255104353
0.114005436542848
0.060859701394611
-0.025988745474010
-0.087474043529774
-0.189196886897038
-0.216121949425974
-0.256786857320040
-0.246161226016885
-0.254809138719502
-0.248531486755562
-0.278589281633165
-0.249775965128457
-0.281409000382287
-0.269126534058434
-0.299721755540958
-0.271045839750549
-0.311986594547109
-0.298571876832447
-0.321217193097094
-0.292379468301192
-0.330098630245048
-0.300956229958456
-0.241144966165154
0.010143322784248
0.162123342492896
0.659956544904753
1.098532245710851
1.524074474210239
1.838935344839727
1.788496941002440
1.157242984724973
0.470612649805476
-0.421899425380638
-1.268108050538938
-1.534066694916546
-1.753236151682876
-1.640508313073635
-1.449488237978013
-1.188237391040849
-1.017468283640263
-0.715427148015413
-0.621078501414996
-0.447766671536674
-0.411057544838309
-0.337000035978317
-0.292514207867562
-0.244191219337541
-0.230843758855599
-0.202557689359387
-0.212051575460281
-0.175568026172055
-0.191667693791962
-0.153159768848540
-0.137821479197145
-0.115529894449433
-0.104486732668982
-0.073776653283091
-0.046856002614143
-0.042874371325076
-0.038840730087661
-0.013925955281625
-0.019430339339130
0.013100505740456
0.012777224620623
0.048232509410731
0.076167305844184
0.081778929026404
0.101273648321225
0.100306784057163
0.111088901962457
0.120505408197747
0.151978032614742
0.180098350229148
0.212987652915099
0.230232025580320
0.263346735449967
0.335272918910928
0.372123787598271
0.426179197500292
0.465114691072285
0.489946942688035
0.507277222641201
0.524784940504857
0.545859918224016
0.583213838546620
0.607214037275341
0.645113965447271
0.639796497543429
0.677961564842265
0.690046175851514
0.708145771199035
0.698521033400535
0.695559965543578
0.649481446713962
0.612884185706641
0.557584080235221
0.527259772554605
0.475973055227416
0.433196656249947
0.357082791262259
0.284518730261736
0.248783393455163
0.162187566834476
0.127164331945778
0.058341104256667
-0.012148158839045
-0.055852705298779
-0.114728350624136
-0.121223303825025
-0.118689973516239
-0.125031332382804
-0.145311171685800
-0.134689161935764
-0.140342910768097
-0.130454542714044
-0.145541092028882
-0.147047094705650
-0.147647641929378
-0.142309727673532
-0.145089409263946
-0.135847069624294
-0.123051823187270
-0.119495279450826
-0.120438910521066
-0.115785747755163
-0.117570543622071
-0.112016545637793
-0.115672858946439
-0.100886238445008
-0.079619041015908
-0.064559551370755
-0.040266328151986
-0.056249152212814
-0.065313445457932
-0.073417922628201
-0.078587130961518
-0.062516764037548
-0.054889133143335
-0.054649105698148
-0.051605811313306
-0.057852058658141
-0.066140213466026
-0.045650048886211
-0.048864867217533
-0.046578424286408
-0.065202257186578
-0.081630887453180
-0.084986996866938
-0.089438017940235
-0.102146122838564
-0.092633445689926
-0.098545921029158
-0.090413533429216
-0.095930192744667
-0.087830331302464
-0.093701869028559
-0.084947736512222
-0.092096579848263
-0.080900763864472
-0.095745617341383
-0.092655099304478
-0.082895198951140
-0.080387011421022
-0.083447456706121
-0.075471330629096
-0.104499188078982
-0.118364329086192
-0.128277094227293
-0.144829113047059
-0.140845138035320
-0.140795610428900
-0.139849559958566
-0.138428084261303
-0.138290556784760
-0.136589538975421
-0.136375807700078
-0.135677717778698
-0.115530878420175
-0.105944714141544
-0.109731370693558
-0.105468741291428
-0.107966436666494
-0.134096781064907
-0.151382264071256
-0.135279631108330
-0.120170909206214
-0.097148608413706
-0.074067914833026
-0.049151456108076
-0.025868587545011
-0.002505052755301
0.047279297921251
0.106376757495263
0.152594905957290
0.204639945221322
0.216875146656649
0.228678185612441
0.183913568261577
0.140386110659236
0.094552938334882
0.033951882170989
-0.055395775136226
-0.096259326338935
-0.172329040577518
-0.172276185113766
-0.209011459490064
-0.204534312801315
-0.242741897056574
-0.232401476233994
-0.262466920764890
-0.245565135051899
-0.264707772438618
-0.266687078567974
-0.292960568351053
-0.282493065667058
-0.315945550553792
-0.305723495076076
-0.303258595390097
-0.282871126622112
-0.298452311835848
-0.148985925944097
-0.071838302428479
0.287667029119107
0.567584929357333
1.089722500622199
1.630615493530983
1.931007243535177
1.889015218370089
1.521175722361427
0.617556850025039
-0.346319000364508
-1.008705165050409
-1.680587741505799
-1.793351549853590
-1.764720377272950
-1.556885983988404
-1.334675019825974
-0.982595937998584
-0.815487146510570
-0.539216813141201
-0.492876329555539
-0.366411505530215
-0.327874984575088
-0.271666518017814
-0.246877376849983
-0.214157402327618
-0.196721039910786
-0.153112905554906
-0.152159615127590
-0.109541309096839
-0.089810460475868
-0.034833454045687
-0.030382188448893
-0.017686444599916
-0.028359662290214
-0.021772407755549
-0.016304105947385
0.011201699078348
0.014763613760217
0.052832147811628
0.060478071324623
0.088547667227298
0.091431183856436
0.097179932433266
0.109312134911890
0.124008512636713
0.128544690011047
0.154352081078780
0.178992006603997
0.211560851058413
0.232653849229881
0.276519037313514
0.308109578343288
0.369713912368156
0.391259707396252
0.459966204056685
0.460863230030517
0.519893856843005
0.533078269991846
0.578830835240037
0.624518590816939
0.664916412311947
0.675783182896861
0.713395641437300
0.714212633765631
0.738301590153996
0.752004995381614
0.764468171939685
0.761709512247932
0.796494330603663
0.773845291791508
0.770908101549782
0.740233140006511
0.702898737496287
0.635217783642222
0.579340149962428
0.501581462749850
0.436419163310342
0.386650427667879
0.319341726193425
0.277285598559724
0.216085764532168
0.167896703318336
0.117083184470429
0.065799444208109
0.039367245614989
0.015003365057332
-0.012618388441725
-0.040389018461962
-0.069782786273432
-0.082055481433402
-0.096183686105965
-0.113063689503318
-0.103914797221959
-0.107602313842271
-0.098385814664204
-0.112078929373006
-0.113685056658387
-0.113637761390580
-0.106762637761401
-0.117895133789965
-0.132263615112070
-0.133951106547759
-0.160761710026496
-0.185996224933203
-0.178645153764564
-0.155504904262312
-0.125954918632016
-0.117783821564702
-0.110973417075139
-0.113351442298320
-0.107892546671691
-0.125164018212422
-0.121074319398308
-0.113029813181070
-0.096230874660779
-0.106496425292627
-0.111885104856163
-0.115623597708535
-0.107021818968777
-0.114043898206348
-0.125560224682173
-0.142787225186036
-0.167364539274306
-0.185546769598437
-0.212845916566802
-0.205746901939309
-0.206579094427045
-0.203652407342918
-0.202981282019300
-0.200357510311172
-0.212589211601704
-0.216242473524387
-0.212544536599531
-0.212617014248093
-0.210598476175211
-0.208414218309227
-0.240068131368850
-0.253639522491982
-0.269177872771749
-0.273402869314751
-0.276383459126046
-0.279692919227394
-0.287827234994321
-0.321218436208131
-0.332911662125994
-0.357419093469646
-0.363173544496936
-0.367393050101130
-0.361707953875424
-0.366157072235501
-0.360543702780732
-0.365228401795751
-0.359527718643913
-0.364715306366943
-0.358428033487025
-0.365343041651935
-0.351914403977669
-0.357429487257578
-0.362635087563238
-0.384995048800615
-0.387520861071085
-0.373058664740166
-0.334006626658019
-0.301763121610451
-0.273648021493015
-0.236451599328146
-0.191846144371703
-0.126066725823067
-0.064702777095249
0.013152029224488
0.075900532216875
0.088215808935775
0.115319883900230
0.097120028559065
0.055653855595982
0.032452036432430
-0.031134106108077
-0.109586194154330
-0.154265347310688
-0.263790293552943
-0.279524023521000
-0.309830287832915
-0.310656714705746
-0.305394786061175
-0.286405274652760
-0.308770699039270
-0.303146428404772
-0.306053176221609
-0.279171937463177
-0.303488320501667
-0.281435277809775
-0.307068915130649
-0.306614420317029
-0.337274033218822
-0.328463074774315
-0.342835278246999
-0.239264400218841
-0.167667855793038
0.144350024529886
0.338465562939715
0.848741775459155
1.319366309509022
1.738656464031251
1.930978187447804
1.766323071522484
0.941543410262088
0.135261150980989
-0.775836586170927
-1.570101830288087
-1.789700241416049
-1.888416167467674
-1.687022828164070
-1.412963752127723
-1.087606027338282
-0.887441306198326
-0.553903462943421
-0.492727476206779
-0.352413190720337
-0.320134521331363
-0.241636942646035
-0.209736234603884
-0.193795873503583
-0.195569346598455
-0.165072397122964
-0.159459027464621
-0.123593158993416
-0.114653962198408
-0.061391183150450
-0.060123211782297
-0.031119894866645
-0.044590068812724
-0.026425115187990
-0.015356596537967
-0.000391279860767
0.000196867667855
0.026166373369483
0.042114955910771
0.085655507948225
0.112244576553291
0.160769762696355
0.165340872531474
0.181805241363342
0.180626328540223
0.196980807369043
0.222540065277847
0.263151502834747
0.307131578691667
0.366894149118513
0.407145671093549
0.460452702187173
0.467285927858890
0.513503466055688
0.522583540968554
0.592279287719483
0.635123773142426
0.695294705447228
0.751812953687345
0.785307519944358
0.794671211951308
0.837023298644673
0.852814712009056
0.874070681450105
0.864981977019429
0.889087032846862
0.893622793314703
0.899984612548051
0.877918230325876
0.872610462494543
0.837170681692035
0.787024121132305
0.718738868613757
0.692643640932220
0.634823639303464
0.580901021100361
0.522346516922422
0.429904769197382
0.364642360363291
0.293441274004455
0.241201253008143
0.204190657016667
0.145486249722539
0.118399401063471
0.067232407157550
0.041619352125932
0.014205423593286
-0.013878654963433
-0.029991196188083
-0.040690872844335
-0.068037054475951
-0.085567455175005
-0.102516921919834
-0.105537972311185
-0.119402875573430
-0.111044754006516
-0.116024514100001
-0.094709767028377
-0.101914284948238
-0.117289068239802
-0.135763182409628
-0.126163097562752
-0.132968253712742
-0.118856200258260
-0.102580844628575
-0.095320728319948
-0.105686230366345
-0.118597781360246
-0.129415158057385
-0.120808034607080
-0.126736590209587
-0.117110120363566
-0.116778336542797
-0.098101848226297
-0.085695294316280
-0.073554908838887
-0.066424944870355
-0.067463017214825
-0.064775455494218
-0.072114850110788
-0.091481410925992
-0.116956244765198
-0.133902790971889
-0.151905897347751
-0.160551867170557
-0.157200262433330
-0.158328978989123
-0.154830649866468
-0.156962060641380
-0.151669700274382
-0.159797688468161
-0.176874709512481
-0.183128647769779
-0.194329928449176
-0.191142325291083
-0.191411229850862
-0.190230385410932
-0.189638490546921
-0.189037693723592
-0.188243667651182
-0.187768994462902
-0.187212347781274
-0.186256383993713
-0.187194584807193
-0.179408980913336
-0.166470122595673
-0.168015107228647
-0.143105879221067
-0.140827591872208
-0.155624758338722
-0.169949651499994
-0.165028845321657
-0.154359051467042
-0.134554151641177
-0.145675425246173
-0.134362915147859
-0.152912474594275
-0.177004383075430
-0.186063748076379
-0.172587884258877
-0.163083375811381
-0.125265963949888
-0.126212738949633
-0.098531676036155
-0.068800762523322
-0.037506732365319
0.020086737874486
0.075868222142534
0.175654473210633
0.217223809901942
0.238105762959568
0.231392159379845
0.188001437595995
0.140139032823452
0.095820331844481
0.015465932587233
-0.043788347831392
-0.108326500603470
-0.182646646019396
-0.213582241672175
-0.235091384510847
-0.248054545234193
-0.247565625988043
-0.252399215313351
-0.267540574874975
-0.274032407276358
-0.303013978989528
-0.303917329734861
-0.302605886214417
-0.283151810994070
-0.298733034553961
-0.283333092230233
-0.305257507764444
-0.307426617433229
-0.345097343131959
-0.268106598215495
-0.138530087105571
0.193956416415513
0.458452733260110
1.072429805293969
1.530800082087316
1.915697076389996
1.923316133116102
1.584697526235438
0.552255288934867
-0.271581150594349
-1.288978393883191
-1.900980585613383
-2.060395954625033
-2.020296022204398
-1.762622965258153
-1.424822129319240
-1.125229129772379
-0.876136639448978
-0.602400471622096
-0.536580801162414
-0.405206869735989
-0.380178207309354
-0.307665389045220
-0.306749627229942
-0.246907171202038
-0.193590649733517
-0.149160344412891
-0.144570630772763
-0.115422897000716
-0.129254802584233
-0.138738825109275
-0.162247674712220
-0.138623192281084
-0.123858467778134
-0.089404408004476
-0.067112734090095
-0.049593600053938
-0.059180613161161
-0.055474030827978
-0.049421094255568
-0.043049066879575
-0.037372654442244
0.006551027807208
0.016685875289003
0.052840442033242
0.088031492210259
0.141552378158772
0.172695385834733
0.190934915165637
0.224611514769169
0.257653581283727
0.304864151372442
0.347270379699105
0.383583023703673
0.438667476822517
0.460120290703923
0.523749244244328
0.547010590143549
0.606679890757527
0.629618174825429
0.658780904204281
0.710866263770854
0.742426406142374
0.788729011654334
0.798192909215158
0.793078102443690
0.796315958307295
0.792903092644825
0.795367323937207
0.794048327863129
0.785532838638293
0.746462877325132
0.708929368080800
0.630031161583980
0.610001483079202
0.539863938125509
0.496900515410691
0.417125939421119
0.328930291251280
0.285555593414921
0.191133927514662
0.156779492798574
0.106474257406238
0.043198392110045
0.029154880074659
-0.023365784077437
-0.054125833455134
-0.105329198241143
-0.122743851806067
-0.152337005919537
-0.152455381965357
-0.169121474920512
-0.163389007944175
-0.166144966012521
-0.162061137745125
-0.163093318740614
-0.179539138269965
-0.189310761649379
-0.181932631962071
-0.186767612795399
-0.180394971055643
-0.185699307068903
-0.174995402316563
-0.155676185934699
-0.155034159480940
-0.152240139326334
-0.134830591316782
-0.137778506635893
-0.136735356292512
-0.155501190934322
-0.147716351087105
-0.173001473277300
-0.175186661555854
-0.175984234158972
-0.173608373077633
-0.175294215599239
-0.172933393297070
-0.174136415296212
-0.174252923390561
-0.213302184214957
-0.227305513027790
-0.232822841905561
-0.230386133074996
-0.218179569106828
-0.220681087526611
-0.235497793036852
-0.226560636530238
-0.235257467635489
-0.221405278033249
-0.215222016010736
-0.211469202494868
-0.192683099169458
-0.184572662463855
-0.173305476910674
-0.172757727283136
-0.173370812898423
-0.182346291650722
-0.194309088202592
-0.188838911484000
-0.193536668612736
-0.173894991917337
-0.178035391623189
-0.174927583565570
-0.195491621394711
-0.191998916586089
-0.198031934610547
-0.188236991106301
-0.175193767602613
-0.152102317688490
-0.158726891998735
-0.153579176868228
-0.161236369610519
-0.149369719357500
-0.143057938988311
-0.140643207952839
-0.122181342296361
-0.104908302169713
-0.104417214993638
-0.104221517750228
-0.106571575119328
-0.106597210620004
-0.071890502585650
-0.015296185963450
0.030118211352138
0.110220508426237
0.136006248698371
0.202092461134369
0.260600735511913
0.334501121112427
0.405811919784373
0.436765913756079
0.488721669038601
0.486037263928568
0.443223863546531
0.385613520687699
0.340783443948994
0.226805780614500
0.142398300718126
0.032600650750143
-0.043169595599487
-0.092964658300590
-0.144964030648751
-0.131870275263580
-0.161534662128540
-0.162446330847622
-0.164866611082140
-0.165974336309041
-0.184273263101537
-0.210299272244307
-0.227604481116398
-0.235317741153356
-0.258311328070548
-0.241635317689371
-0.230060032138476
-0.250241986610345
-0.249976215530464
-0.187194180309628
-0.053940460418388
0.203645629457952
0.474395873438335
1.109732328693533
1.557645896658065
2.055151996734480
2.187405185178652
1.814693707968265
0.829058274128962
0.019718936666732
-1.153484325289779
-1.744970587062755
-1.984200375455297
-2.019168295891022
-1.811576944322330
-1.466390173682891
-1.225541508698707
-0.908632773953705
-0.653202693162677
-0.530450774484001
-0.388277084271578
-0.364309774076726
-0.304781573103704
-0.271528597101843
-0.264863603903395
-0.250881822558608
-0.240364960664973
-0.233681266775414
-0.211098997093845
-0.197490974190248
-0.166923324471047
-0.160177314773367
-0.138777977386807
-0.125925813177879
-0.110474041719885
-0.094169487740596
-0.090996205035428
-0.059993859909549
-0.048511683106576
-0.010712212080927
0.013907416557359
0.045056210556029
0.068486298071963
0.093473795756666
0.107794028833264
0.120824094853476
0.145668371317493
0.183409360807394
0.213397606468142
0.282825742707365
0.297807516583239
0.340097229449555
0.394785544503517
0.442743185456141
0.482117860282966
0.538908238662926
0.593261199816377
0.631940193134745
0.685156512012212
0.708096267552040
0.765419768480892
0.812306504781888
0.857350784079785
0.916016097961208
0.943318992680366
0.963235092340855
0.991211663615872
0.974576986749070
0.954951352330536
0.944771561825018
0.912640042634879
0.888986842960739
0.845945265782270
0.777088732529282
0.729264932384892
0.625846731102234
0.556242268858680
0.479241513807049
0.415304066401971
0.369167289589331
0.279837637103114
0.248650435844946
0.175735161856242
0.138830618650619
0.087950737758918
0.024273595723841
-0.001856020505464
-0.019249694184777
-0.048835938942865
-0.070822830367380
-0.085778319442942
-0.091006890828155
-0.070554027817642
-0.055265837870034
-0.063287812026936
-0.079936730249178
-0.084202976998692
-0.095767747743377
-0.090025563369890
-0.091097838273069
-0.086761360341559
-0.087817274477057
-0.082220161332248
-0.089569116673177
-0.094309971953142
-0.069336650532334
-0.061637435864860
-0.057960194872479
-0.063561333389425
-0.093612252495325
-0.105299801174913
-0.122257786141673
-0.137496777177350
-0.132178528056888
-0.132923916172185
-0.129957560110113
-0.128728284618634
-0.132790478291799
-0.145918427375298
-0.139107047727362
-0.142046819044984
-0.136697004750993
-0.139174300869353
-0.134036123431883
-0.136597119856496
-0.131306613005444
-0.134287349974172
-0.128419407575946
-0.132527785467676
-0.124438919347946
-0.137237225959739
-0.168896483024174
-0.167228451829952
-0.165055316534759
-0.165859207967753
-0.162457268849767
-0.164128211146221
-0.160952030717132
-0.187145264600061
-0.182387346814999
-0.188364039731289
-0.170845162364064
-0.175956980688836
-0.183387873906178
-0.180344819415328
-0.180280868658540
-0.179016098435001
-0.153347309114612
-0.157724936142641
-0.179312889643066
-0.175515939068071
-0.178699695942417
-0.161119106577787
-0.147205787828309
-0.151664562871947
-0.147870688012299
-0.149615507952136
-0.166139801043833
-0.178016483969075
-0.161830296414179
-0.133198154165642
-0.128924089844408
-0.101722873753531
-0.065763049969669
-0.053835829098692
-0.006707674676641
0.065528316426439
0.118294695952610
0.161317548167813
0.208956795259661
0.207023630063652
0.195332905519638
0.144721353355383
0.092743523402825
0.009160861227825
-0.035780508003290
-0.138251804881551
-0.165216157583238
-0.224818891204107
-0.220717723350919
-0.229578890934931
-0.237902734748969
-0.258299475831623
-0.240399280260159
-0.270664951909825
-0.258529576992435
-0.274017881733955
-0.256911448718425
-0.276253035582076
-0.280231072644673
-0.301517300729171
-0.288581662932881
-0.324653919420725
-0.290565062530387
-0.286915519000450
-0.090584123032630
0.002833344019638
0.423822885504254
0.848386500106733
1.348039565395005
1.912974606074912
2.047968895220390
1.694347786465248
1.162051740900406
0.200887226721323
-0.869306303251746
-1.297451144802027
-1.749404127329657
-1.722939880330334
-1.565195249484258
-1.321480801283929
-1.143421298545089
-0.816638735881018
-0.700258541938670
-0.476560982741214
-0.405731538966920
-0.314574710264304
-0.265262788397781
-0.224118842566916
-0.191607347825104
-0.166977628327314
-0.160136762455086
-0.136302545919800
-0.154237582818427
-0.138993286157166
-0.140659159770852
-0.119166119720601
-0.093447538082778
-0.066857607655775
-0.056316772430820
-0.012937421650410
-0.009079302665924
0.032412510773174
0.020333727798758
0.061957109970083
0.060556691786970
0.084488741649522
0.102374683386488
0.128417501678498
0.157860604213605
0.187296525368055
0.216130472938829
0.226174375725720
0.273771136513712
0.306208174591935
0.320762607491414
0.350901043848011
0.364671830032344
0.408875404503304
0.434495840181324
0.493801576768398
0.534290416792006
0.603730971012554
0.666529803303189
0.719369423113658
0.767329215231979
0.811336611689048
0.830327428988309
0.847876339786123
0.864869866446312
0.887174978986454
0.890581668303230
0.893552437544911
0.892729601492374
0.891061172403754
0.856698115414762
0.847298697852167
0.787920816530867
0.761217433767803
0.698062008135339
0.621916757055855
0.552354574342726
0.458585128256921
0.400062275527067
0.290135567220299
0.233604654854537
0.169317462350929
0.097809444322695
0.053846566745784
0.003764616606607
-0.006980211541099
-0.038923325102925
-0.069754272752326
-0.096686931975715
-0.105012042092298
-0.125718524237969
-0.113407484924470
-0.102481441598089
-0.095566992428381
-0.098247272133664
-0.089901098072527
-0.098285064743046
-0.109325694947043
-0.130991453111899
-0.122286750904169
-0.138580684324567
-0.136203452948657
-0.119864241432795
-0.116451733159231
-0.101179035059544
-0.081584365104729
-0.088510421670258
-0.077655013850808
-0.090745787343240
-0.120618546003100
-0.147280144983149
-0.136208052458462
-0.143785835370744
-0.118478782085045
-0.109342494488752
-0.105766536511095
-0.106857815741035
-0.100931825817401
-0.103466705458146
-0.096300005471344
-0.100484930140988
-0.090415755921109
-0.110930694015168
-0.115839827634621
-0.129168345600001
-0.127923543982851
-0.137265834119755
-0.153946001534576
-0.146840066098391
-0.154547675099962
-0.151872863212629
-0.140063106508313
-0.150595963789995
-0.157707584585260
-0.156064929508372
-0.153729555908372
-0.152791148777568
-0.151488883812857
-0.143707149655114
-0.140775097585140
-0.150808783671292
-0.140681889913138
-0.165996410156743
-0.173734894710179
-0.196548657754073
-0.204679331816155
-0.217202748072313
-0.215157823814796
-0.200775328775711
-0.202292839849480
-0.199982597086855
-0.184303770543598
-0.197844004319454
-0.197837505209661
-0.191645712928076
-0.168444589371406
-0.194890293261643
-0.191546693811774
-0.193805456952475
-0.189869007153803
-0.174467143567014
-0.149201829315271
-0.125770749916155
-0.101739204517348
-0.069441716485826
-0.015913086340402
0.068175981916136
0.127685857584322
0.175551194395651
0.187096087773794
0.176713291878221
0.132087973390555
0.070025731632372
0.013921063375367
-0.031317110110903
-0.109498036727048
-0.170463027113800
-0.232608106107319
-0.276951932845261
-0.287444305847365
-0.306502357373460
-0.290997806740306
-0.275328703168887
-0.271313412866410
-0.274827744834117
-0.270013430081041
-0.274481567965858
-0.267799331746667
-0.287313916065223
-0.297884819240341
-0.294385967641544
-0.304561794533290
-0.322072330183015
-0.325137720340512
-0.226702077320894
-0.072114201131541
0.167228862565896
0.652093518255205
1.024996167205322
1.659843640725662
1.984051310013363
1.914355817744859
1.439301865241969
0.790534151541832
-0.401077353553605
-1.024132234278914
-1.549849156771403
-1.778665158159699
-1.686718873832390
-1.467962474583106
-1.297469079352073
-0.977326248069697
-0.751965810894890
-0.569138473482334
-0.409878580265506
-0.381834784835872
-0.312650435557184
-0.294545275527653
-0.259747076678125
-0.235998683767158
-0.210895300202200
-0.170886575775336
-0.152630933951984
-0.137433882603779
-0.141190966992680
-0.140327906409156
-0.131139901504423
-0.110038850923982
-0.095579025846586
-0.061800167862671
-0.041639877755841
-0.022750302072763
-0.021028117995985
-0.015336703959402
0.005408552299544
0.018486555987965
0.024020753737866
0.043786484176126
0.061028469665530
0.074381237944913
0.118266667086779
0.160380006522895
0.179571474669232
0.224675359548472
0.257571639330740
0.296695185473872
0.315728842194935
0.355173018409576
0.397187500660539
0.438082839008658
0.507281950650393
0.541034071994837
0.576244992604541
0.629811290313622
0.655557402727575
0.696199580115992
0.731564326694892
0.760652486941551
0.777646745484011
0.797577653038822
0.840809238962131
0.845478591806059
0.851743224779933
0.831511088269600
0.779743662504970
0.742559114189206
0.726160101599076
0.681271194478611
0.643311523169127
0.579453671947948
0.513151428219532
0.422086394016623
0.353931216746315
0.291084078561219
0.209925734160170
0.188302712630131
0.108302485077473
0.064715828669352
0.009780251242181
-0.028526137534313
-0.063299215224881
-0.091899168462353
-0.111081986669639
-0.114261249568475
-0.116116585235137
-0.132300024992288
-0.139560331002046
-0.145878550203051
-0.156515004663295
-0.170968711812676
-0.166501457126492
-0.164233962664829
-0.166236904803656
-0.170756013925281
-0.146419019959269
-0.130154759879880
-0.129691221368500
-0.127738712450264
-0.123983211497582
-0.137555488878782
-0.150842470796488
-0.124089144247195
-0.108332861812091
-0.096658036366019
-0.099209127423152
-0.101324138139637
-0.124343111983250
-0.133249621792280
-0.135007828110118
-0.120107780366473
-0.101633115582906
-0.103020162272879
-0.099220617741403
-0.118140037647137
-0.124628911207240
-0.118610538299666
-0.121078989559767
-0.114880120455766
-0.122953380646910
-0.135799175298122
-0.157815379825687
-0.150026603390352
-0.156650202294860
-0.132099713990847
-0.131725844707737
-0.153506848055865
-0.163463320301912
-0.160524330886026
-0.180491204297407
-0.185910709952363
-0.181957171929014
-0.184996182543613
-0.199182649457087
-0.194463830733293
-0.200409775991542
-0.221567822478587
-0.209878723660809
-0.185114665188978
-0.177035649132472
-0.163674669959372
-0.143651767925979
-0.161603848687289
-0.174197866643649
-0.166850769871789
-0.179975154138474
-0.169704890512226
-0.167536771960909
-0.167697682888701
-0.158875509384471
-0.134088380700052
-0.158005839024814
-0.164238155741914
-0.165357176642571
-0.161038844746659
-0.166597804483425
-0.137103585170749
-0.120358945571487
-0.110633304277190
-0.079329405439545
-0.062358948180507
-0.000971948145726
0.025155624272167
0.100977613717503
0.180220622927536
0.210759508030839
0.247444942386402
0.243535766043132
0.242240427501937
0.177096432301376
0.118295524457791
0.034871554508509
-0.030849630338629
-0.118676365136338
-0.152005598010348
-0.211857651555225
-0.206165440335891
-0.214553567140517
-0.204795879902321
-0.213451829545134
-0.206561654312664
-0.250471980168951
-0.244552260424911
-0.255484553774956
-0.241764715260104
-0.240094345507226
-0.223595974051753
-0.241865953490466
-0.266562230535608
-0.309405245672284
-0.301048108338217
-0.300331320267171
-0.080276011764828
0.076296033396667
0.469152422388251
0.979695822137099
1.420626469600250
1.962054261785541
2.074719149755949
1.680178814204853
1.001156570271548
0.148963056055935
-1.003864149767165
-1.454689299573408
-1.847439573089295
-1.852166654089735
-1.676965766319440
-1.375650405602072
-1.181452322325516
-0.818320948252603
-0.683315997753897
-0.513524129769866
-0.451647304233446
-0.379847150216503
-0.314684092327893
-0.273520599285759
-0.266672930614200
-0.226928681165846
-0.231376736362765
-0.202594070137024
-0.174216561655815
-0.151710540382172
-0.130941433996895
-0.107843774505138
-0.110107587603773
-0.101117514224261
-0.083601123147172
-0.068939594829946
-0.048813460843984
-0.021972986777075
-0.010589716301724
0.011469105038422
0.008390069776097
0.035918977562933
0.041215716794235
0.068104883026024
0.087630527230487
0.108251407996040
0.122850734502592
0.159487136936150
0.176209193048867
0.225482101799632
0.249570737487220
0.293235385741100
0.301547211254655
0.346627328956999
0.369693227264916
0.427820183667313
0.462835388546979
0.504980632352970
0.552874834767375
0.593244336124481
0.606472984033405
0.640040739541724
0.663287137379748
0.695279701351667
0.723604401941110
0.733002896410134
0.743995233196812
0.751721208419225
0.731532098223437
0.737820621228104
0.719476437872879
0.686072847454554
0.660687299220001
0.619459307037623
0.559551875556624
0.491795900683920
0.452498238820253
0.381911838361083
0.343722821378735
0.273966382405020
0.219423489312055
0.162315245206559
0.082733954970911
0.059211234710846
0.009525708752830
-0.007937678922875
-0.026414625793431
-0.053807965903081
-0.079084106177789
-0.106555766947129
-0.132549544223368
-0.142403285478473
-0.152493475013900
-0.143864565180819
-0.148072797228347
-0.140574450420121
-0.144440711675095
-0.137070089129307
-0.141168087604404
-0.133293202053475
-0.138845456782022
-0.124220152415522
-0.115580947721147
-0.111589262941275
-0.113931875802028
-0.106934391095126
-0.120296622499540
-0.123849924178086
-0.123146244696010
-0.119750144336733
-0.120787585020766
-0.116429234336036
-0.118450426486345
-0.112668713390319
-0.119885148110085
-0.138119456026311
-0.136378440662719
-0.134802421129641
-0.133759840472448
-0.133016230824979
-0.127091912776511
-0.102531636547069
-0.105145046254316
-0.101608798234552
-0.100975865672530
-0.108061649106859
-0.128748034629423
-0.120285069101917
-0.141218633498645
-0.134811536479600
-0.139807442513064
-0.131966635332842
-0.141896194335764
-0.158221822710500
-0.159217493500444
-0.155525057969970
-0.157758828175909
-0.153636037370918
-0.156071189081385
-0.152576501589788
-0.170781341944171
-0.167066368835922
-0.170938154484017
-0.189934668545553
-0.193672845547465
-0.190594956769679
-0.207680325070782
-0.209776973567834
-0.235524175165666
-0.227729060741392
-0.234148586302499
-0.225889274788066
-0.209638816928034
-0.197976641808719
-0.190024021307645
-0.200776394890469
-0.206553649734331
-0.200316114481958
-0.207183669471537
-0.196519815530911
-0.189883788384341
-0.174628417663560
-0.161083195152251
-0.151639236108567
-0.142376063941585
-0.128975621346209
-0.092417906595635
-0.071499379621050
-0.002891401307949
0.079175777186514
0.149580500932693
0.221342552558960
0.242532042271051
0.266180374170578
0.227472108151076
0.166746722877975
0.119211805556919
0.084628489102131
-0.030234418007951
-0.077508829806272
-0.160341853389385
-0.194123570823469
-0.238475429365530
-0.238966068811011
-0.229441699281623
-0.229420525291299
-0.270166932275787
-0.267764613179362
-0.314430488322560
-0.310004148697940
-0.336584758020556
-0.321743500160335
-0.338949261370843
-0.312452847834326
-0.320700153117259
-0.318735566839826
-0.343175088892235
-0.273952470567439
-0.235166691191495
0.033744154647951
0.291085360346178
0.680158529572077
1.281335046652637
1.708468073532532
1.972970297066357
1.888439077727372
1.275686470295054
0.272374359950598
-0.512252502068130
-1.500709013423202
-1.833532673278961
-1.976713476272864
-1.812200705502625
-1.597091592937428
-1.202236811677670
-1.006376499255798
-0.686826114644243
-0.549779747602624
-0.463062243975378
-0.399840616208887
-0.350175252533413
-0.316777932043307
-0.298150291087960
-0.273107643137227
-0.244372312710552
-0.232934844549164
-0.212866394836951
-0.203309301708144
-0.179498415946109
-0.173405328731702
-0.148434198680662
-0.139849407180408
-0.132723095075466
-0.141259876035599
-0.119432148520883
-0.106467390351722
-0.075250923828057
-0.069688439648414
-0.046917704183599
-0.017127150282434
0.009666777461736
0.046417126883886
0.069399899662468
0.102339757972878
0.114716137367819
0.140252592894172
0.157723374912232
0.190941669631575
0.227509522599123
0.277255075798376
0.328608447116758
0.357791558566227
0.403834019623008
0.424853576902134
0.440798937820908
0.470877455187053
0.505697802514515
0.569327751836810
0.615312164026267
0.661487458189588
0.698578489920818
0.707866160127973
0.732496719580190
0.731657055378958
0.735638362263732
0.731066013638890
0.760186205075085
0.735717383472456
0.732012952669341
0.685790775981724
0.653228963165586
0.604706808097855
0.559885797649061
0.511634677720896
0.435808786228005
0.389808496007197
0.280239182626338
0.220249736196055
0.156705578629326
0.064844244590783
0.039877352394936
-0.044533510372640
-0.063356225145954
-0.100561244983374
-0.136419099866754
-0.153711111078812
-0.188132112800406
-0.203218509149487
-0.223222453547466
-0.234054286098953
-0.215758533220761
-0.230326247434155
-0.230689867808872
-0.241317927006473
-0.257788797469011
-0.264408815972861
-0.269920605398082
-0.249211540404641
-0.260251904919065
-0.241523203460210
-0.229019551103095
-0.227219354478862
-0.230841941558936
-0.224509996635798
-0.245158031583661
-0.253450879180510
-0.257247707683346
-0.269102895227296
-0.279523577689837
-0.298605179303761
-0.293271557034448
-0.272668806453961
-0.270362192696390
-0.272588361259680
-0.295875562069719
-0.309308641526442
-0.318468468117707
-0.305845393082450
-0.301536519935053
-0.282356295435054
-0.282675887469574
-0.304422368764817
-0.300547382900012
-0.302168857792407
-0.317957522372606
-0.311633044317558
-0.308999446892063
-0.326858425889785
-0.321812411917459
-0.310051190131392
-0.311143285377929
-0.296085614844713
-0.292185321348544
-0.322693053388011
-0.329015545087929
-0.319115361604743
-0.318002670581845
-0.307410737747244
-0.291066783112783
-0.304907777699454
-0.333610152411419
-0.347013884077967
-0.342624323494229
-0.349781581290727
-0.347028036284316
-0.353436947766120
-0.351449913990024
-0.357415657345632
-0.356117776559802
-0.361529820072678
-0.361361529202344
-0.364762739675774
-0.379733216143352
-0.400794174511653
-0.374206644352228
-0.376403974819079
-0.375966997772537
-0.382918099392145
-0.373737327076983
-0.360158906198575
-0.342190270747179
-0.321386957209795
-0.282224380614838
-0.260514632665169
-0.245500775598164
-0.220945161058351
-0.179842115902362
-0.126334583101797
-0.048050942006135
-0.025391441177821
0.038415160763506
0.024080633866181
0.006511171645704
-0.029203536600571
-0.095037866884204
-0.152581466300258
-0.215332353216146
-0.331459347008646
-0.360888658217321
-0.423148409152873
-0.462945914075856
-0.491866582302055
-0.468881872999897
-0.468292389629471
-0.468664431676866
-0.476339016405966
-0.484724296857100
-0.514420275159640
-0.516000103739321
-0.537101726890385
-0.509488278883510
-0.537381937346213
-0.517917496803069
-0.549268031464329
-0.522013772828175
-0.520581147615347
-0.333413682147457
-0.181079517044352
0.179570494578273
0.662139305543323
1.120388747937158
1.732141288473970
1.921666423814465
1.541425006179936
0.881819878786921
-0.033380658564593
-1.321597102967841
-1.838003116139866
-2.277016311308212
-2.283295876735314
-2.070178851107873
-1.700306395569698
-1.492610734077002
-1.085024387796872
-0.919347514743343
-0.747868939773848
-0.682366742213258
-0.603697656440250
-0.566504813332749
-0.526790128564937
-0.495041627663002
-0.472118305944454
-0.445369370499943
-0.391014959274667
-0.379487120133179
-0.336556372232213
-0.325738611519304
-0.303865001361426
-0.292237548412349
-0.278254207551474
-0.273962964455387
-0.260328918240239
-0.280839976291830
-0.276762264655266
-0.295703417801887
-0.290186395543248
-0.290452263931789
-0.270093856670703
-0.265793087981011
-0.228808172873920
-0.209309294296528
-0.179338098324654
-0.164547442881266
-0.137817262299411
-0.124372146003593
-0.099849223598345
-0.094401045253953
-0.052666810721338
-0.038094965314169
0.022383266596965
0.033768267482417
0.085818952585029
0.113630850593483
0.147002529939911
0.168899941695680
0.216104554643373
0.247993620502851
0.305973645567350
0.303492657795126
0.352290039239510
0.355590504911950
0.380832177619826
0.362413958879671
0.367711719440656
0.346641802670732
0.335738520590184
0.292564854333638
0.270310986472448
0.189269694334707
0.141843086221623
0.038414798070534
-0.037446828541858
-0.104535775737255
-0.174914046262381
-0.232662650691059
-0.292101864589213
-0.383868340526893
-0.451164713817214
-0.555182622948561
-0.588091011371393
-0.679682871884778
-0.695316213203960
-0.751754368139480
-0.753122667972414
-0.818189410142702
-0.792720744839457
-0.886481597118484
-0.817580081747600
-0.970815398151553
0.351048615578431
0.716615309257153
0.574140903759437
0.641025987691749
0.562277661084090
0.597696001084211
0.554769106409467
0.574754290298739
0.543112195419743
0.554782437479183
0.530352326218958
0.535718755583075
0.520093687723254
0.535759180427635
0.527908260376080
0.548504530042002
0.529551249843446
0.522556670135952
0.501385951390189
0.493317681159847
0.474503908124448
0.478106064632034
0.460769709336949
0.447797609866665
0.430637824127007
0.442304133031185
0.438216322278419
0.434328155585221
0.424811665285972
0.421452627153862
0.401106000118057
0.376088141371059
0.356081694472408
0.355296606436245
0.346651402727614
0.366362047316215
0.360921236994601
0.341768122165198
0.318538603513387
0.322926137905234
0.298627349962620
0.296341069501666
0.302370843094186
0.295013522158176
0.290176466333018
0.284540275197805
0.278649210891738
0.257499818964919
0.252135484989499
0.245096287836984
0.217774482850311
0.209941795747253
0.207798787124917
0.223789399093837
0.222387430013464
0.213978744728150
0.213558040694751
0.199226022127423
0.176849443672645
0.164064060783211
0.148312025340174
0.144200843817006
0.140836126077582
0.132396875310066
0.141638917060511
0.141362203887158
0.158169237933389
0.157754816119003
0.178792812198086
0.193915935876259
0.225690098388447
0.252540770156121
0.281933714542216
0.358243627272858
0.408079650579918
0.462848416551343
0.492143137677912
0.509777794178764
0.478354660431130
0.422047513061239
0.344951789983365
0.297343341496677
0.219872443736921
0.138601842395323
0.104949915843364
0.038447425541959
0.016901991088054
0.003287635100848
0.008610749082591
-0.004128503501677
0.001367814468930
-0.011965956744321
-0.005511870718692
-0.020274435181808
-0.011454423926115
-0.034054404564460
-0.038411250808325
-0.051432956919767
-0.044194585021311
-0.059684760761682
-0.052598135837384
-0.028324605541897
0.119210440413723
0.238970469142871
0.688412906648832
1.025059763643117
1.656503343105559
2.133719480595790
2.256151068264420
1.930856787123746
1.414990807330186
0.263225660851415
-0.569445481640819
-1.147379605595297
-1.559858752721019
-1.539547348439991
-1.384917300976718
-1.195638440244448
-0.959475747943843
-0.688341968226786
-0.537564383386529
-0.307397591729969
-0.276211896225091
-0.147815232440966
-0.123774007416935
-0.083795630009612
-0.070102713908253
-0.036896282746594
-0.040583893572660
-0.009501287784349
-0.000276371232360
0.039959660943761
0.020850645725956
0.069002293053639
0.053283089615004
0.069961959641864
0.074974705395625
0.097777922783874
0.095742891351693
0.112197821966119
0.122561106998555
0.156897986610041
0.144386113329117
0.178784952910470
0.194149993793593
0.220487011410884
0.233525459951318
0.260166837745413
0.284370869265467
0.315650119693609
0.336609572275665
0.364779554753119
0.417451491530399
0.429932560362712
0.471997889600806
0.515653628708968
0.549141391861823
0.626502269537546
0.645450966052363
0.704372837868990
0.735697744543432
0.774000319494494
0.800455763259540
0.841457968031278
0.888748406222864
0.924332418790210
0.933940039469332
0.968942216711594
0.973584136428848
0.986331121992955
0.974256328075660
0.973902169142065
0.939098746367371
0.926594023099380
0.876676649094137
0.818997818328080
0.741789046770744
0.697928450854745
0.613622326433178
0.534177650919747
0.477159085328215
0.389101432426964
0.323781202125108
0.237324551639084
0.185832842159551
0.130221368687188
0.084449544670956
0.053752211366168
0.025645441187085
-0.002361300838230
-0.029465852732371
-0.037007754158498
-0.061670509342508
-0.064815995339104
-0.062648139837841
-0.076164394678218
-0.070695139696785
-0.056818645044806
-0.062873066119620
-0.055273120670991
-0.036324406025815
-0.029560776958292
-0.033419335953422
-0.028229088623745
-0.031466984898081
-0.026927373706870
-0.028978040218828
-0.044434956164101
-0.055671721767855
-0.046679677869131
-0.053730236281703
-0.044264048519570
-0.057992279145304
-0.062442921915418
-0.066732637288886
-0.053987550512630
-0.045764997878878
-0.042721531606902
-0.046151506437456
-0.039392344384626
-0.054685911976743
-0.056949450721847
-0.078507512479059
-0.082583719393878
-0.081652784902209
-0.082225192102502
-0.101063869974104
-0.087027153592377
-0.082295947528856
-0.095266247522346
-0.095329995164685
-0.092713338920060
-0.095343112843089
-0.090131875759141
-0.099220691799694
-0.115999594498465
-0.123507417739121
-0.134065581598694
-0.132502055412017
-0.131558793829523
-0.132914921568409
-0.128740920523286
-0.122024631851461
-0.131818312610735
-0.130101912863622
-0.130206439396245
-0.129905898090377
-0.130430393921646
-0.153936118573304
-0.154353415117709
-0.153727876499927
-0.129519411278137
-0.129269550543127
-0.128454362282772
-0.128703879275233
-0.147215852831641
-0.157327330596539
-0.150470753929093
-0.169777901203730
-0.169087480105649
-0.173620140727382
-0.155312537177631
-0.155955259891428
-0.121719030453580
-0.114737724492080
-0.096902748894493
-0.088470294772261
-0.053831952875635
-0.013650366091907
0.031229945527218
0.107042474631953
0.139334429357617
0.171504802507293
0.169731407546403
0.157927018257994
0.115570715287953
0.086502340308399
0.023864029114396
-0.019156941260380
-0.094101742299480
-0.146889197255987
-0.192091853381847
-0.220036311957407
-0.215622384542429
-0.217707219350559
-0.217281783074124
-0.218375773917400
-0.243195220594533
-0.241926304779357
-0.254611982576012
-0.262449500109247
-0.261745462184576
-0.262257255067127
-0.263276086456295
-0.281537659270607
-0.294364091316801
-0.285176686777883
-0.268885292707822
-0.131636820693516
0.033324667685944
0.297953120979587
0.826550787693518
1.208611451389599
1.780056185642680
1.977299476380429
1.722999983852275
1.066022817036844
0.380536388464964
-0.742110546654224
-1.220975422304783
-1.603810838264929
-1.696264848159825
-1.566789237094735
-1.302966419929693
-1.118718765131461
-0.814583733835710
-0.622915418606214
-0.465322558634311
-0.355530810596970
-0.318242699706271
-0.245927240157657
-0.223749637124639
-0.204401165758470
-0.189101522178669
-0.175578625757858
-0.147999303931158
-0.131674292057070
-0.113404770196521
-0.101511615324637
-0.081682165555594
-0.076991832463261
-0.066780783233887
-0.058598015157930
-0.041338047707342
-0.038361724430549
0.003193869268201
0.012052372638455
0.027640710750253
0.041863838296308
0.064782970395712
0.076269012717474
0.103800000049832
0.131398896583301
0.145323508745703
0.173661699797444
0.212933546610052
0.224062490425208
0.265022129557834
0.281684051012276
0.332981488722337
0.352860613345356
0.403207124439716
0.429383481647307
0.469469409805714
0.535569555704766
0.575378605593933
0.606148398176454
0.646519527292909
0.712194004936067
0.754607087589407
0.776425418919115
0.821697447477232
0.835501961071939
0.857139551626549
0.847804212761762
0.862371271421941
0.868837957902757
0.873305811438331
0.844939329699123
0.814919543882048
0.761083256052148
0.702417207079081
0.662996679799467
0.579990898468287
0.531616172017946
0.446241539979591
0.386792594067876
0.321795225326280
0.248248927988861
0.206339865753151
0.129382351292300
0.101126970821685
0.052040136011001
0.018408556714167
-0.010149561078514
-0.040015518830182
-0.056594861178673
-0.070552719662166
-0.066155477473442
-0.064929500806331
-0.074561495247154
-0.092306853216348
-0.109653333583257
-0.116538096256378
-0.113903736090793
-0.112247688590867
-0.110337677333497
-0.108695223717220
-0.106504231644328
-0.105639702735275
-0.101603151872356
-0.087519918018966
-0.060982377473224
-0.069253410219070
-0.083290891363814
-0.077750568241669
-0.098126551858044
-0.111811961804304
-0.119630209363937
-0.096401663078954
-0.085552665794445
-0.085151694672706
-0.083357131789461
-0.082210051660612
-0.078857858568736
-0.092842297100798
-0.106101190609793
-0.098322364254308
-0.102228904264849
-0.112366565214079
-0.114864200651606
-0.111276101156303
-0.106217494470235
-0.088268346775007
-0.094571466430425
-0.085866580821038
-0.094665683527917
-0.101020040468600
-0.112656792349190
-0.141170543629308
-0.142133597746748
-0.123652854442919
-0.123443321949290
-0.120733841260048
-0.120673889034805
-0.121134032738313
-0.137162415379869
-0.131800861008770
-0.134245527962934
-0.130218234081018
-0.131192034379143
-0.132355877316440
-0.157357067197916
-0.149604357912038
-0.154670807729727
-0.147968554451853
-0.152894372886587
-0.146006424966619
-0.151654154130102
-0.143377379396027
-0.153575326851635
-0.158908569915032
-0.173824765186160
-0.186500663961859
-0.187955504734462
-0.174919798226354
-0.157164813207781
-0.159186371921666
-0.141064642538570
-0.142711153528700
-0.126006883539502
-0.111418986436015
-0.105303287859699
-0.078523763323823
-0.025436581893010
0.012984192037056
0.092939227410907
0.139756962308976
0.165871534361624
0.192985508705263
0.166360055657724
0.139875382605099
0.103647401991425
0.059469693950271
-0.017533636769166
-0.070390010098346
-0.151949156506587
-0.191238922848191
-0.219008591895959
-0.235488460665337
-0.262405153462335
-0.258971161248651
-0.278762893210120
-0.285072263441420
-0.291939455516086
-0.257731240738998
-0.286561790065856
-0.286845106918864
-0.305594798804557
-0.285353856440042
-0.306463953477504
-0.288709199889214
-0.330493558546732
-0.285115113679833
-0.258313967997069
-0.012865167438016
0.134225883471468
0.554377554937626
1.079255911604377
1.527004400418172
1.966730355170450
2.016146169253807
1.497721811533134
0.742683100538148
-0.079510215681401
-1.124380174357811
-1.487809010800667
-1.777320638254292
-1.702492328015508
-1.522809223126548
-1.238262222986655
-1.068582945847449
-0.729836432227242
-0.612567176978254
-0.440616553010014
-0.381791982690702
-0.301172389613058
-0.257760313870176
-0.223249214842002
-0.196924756506515
-0.157140280913024
-0.156165742567146
-0.119534000927933
-0.109886011234103
-0.075486195141930
-0.066542034929448
-0.062044289894881
-0.054352055833700
-0.046787408578789
-0.057305381894844
-0.040804608193736
-0.026580542295065
-0.010015799912620
-0.018328424839042
0.007168911268991
0.007595770008090
0.009266915091247
0.015780447716996
0.040656775584505
0.062643239474753
0.080049511873089
0.106083687777860
0.127196608477148
0.166298830395726
0.187177771345437
0.203917202278082
0.261544029455642
0.283077398436631
0.318336058867869
0.354547158207861
0.408163021509174
0.446826174832331
0.485359912973342
0.537297737833755
0.572210394064977
0.596409064665674
0.639676733383462
0.660182647059205
0.698970677629741
0.717997213826947
0.746199081931421
0.735033552674548
0.732346093341541
0.729999952716109
0.737103393957881
0.719688379193964
0.697959073379630
0.652873346621157
0.599234556480498
0.553755150948230
0.468302642102425
0.404926101132936
0.316024401479848
0.279410857425321
0.188281601514412
0.136787336978569
0.097977188393968
0.036560160798562
0.009972721188987
-0.028558674055388
-0.048635953071526
-0.060282877167047
-0.091489721432745
-0.117194313194878
-0.130751827479968
-0.140841259874650
-0.135888758466214
-0.135888081210776
-0.151886981967136
-0.160929198708269
-0.152113923204661
-0.159909407751559
-0.167124969570158
-0.153787327158252
-0.146456475197281
-0.152434205200516
-0.133549441542236
-0.124982934245478
-0.131485007968242
-0.112389738363696
-0.119793475514171
-0.102452529296669
-0.096582361927253
-0.075899187509860
-0.065121459073639
-0.077278097093769
-0.094161955855709
-0.087087169717641
-0.096044542333093
-0.105140969227969
-0.102736047737988
-0.101489777393332
-0.101264080524286
-0.097627308001170
-0.107197645517905
-0.128056794266411
-0.137983506258769
-0.136155389551845
-0.155160927493243
-0.162657081310831
-0.173742020522532
-0.175649001941127
-0.174019631525218
-0.197606545149516
-0.196867643577905
-0.196569370246683
-0.195356345960977
-0.194646227666648
-0.194364299342076
-0.192201800514046
-0.206452894806419
-0.208154848905100
-0.193434342188329
-0.184261356517748
-0.177696496510646
-0.193974421016972
-0.186415401130023
-0.190807887090284
-0.187172375584279
-0.185644455355663
-0.157557930107728
-0.150248521852234
-0.137368689217670
-0.121131949278723
-0.112633024576820
-0.100491243851726
-0.104311544824954
-0.092603463690147
-0.073321251246276
-0.078602645449615
-0.074577059309924
-0.077613033970788
-0.074751776829342
-0.076967117942963
-0.074965064525853
-0.076169034427394
-0.075858281699357
-0.072469312038403
-0.058627439851102
-0.050842948209743
-0.027779047568167
-0.004064022767479
0.036121620007343
0.098123969035036
0.165310334873171
0.219993936102586
0.268042266207631
0.275845025461689
0.291338253106604
0.267155303608152
0.224772004625135
0.167510141886202
0.128440594303624
0.018883956940210
-0.039119719145001
-0.135306293389609
-0.168481846279443
-0.191686780839902
-0.195079399519699
-0.198175146271393
-0.202190189613930
-0.228323604353501
-0.215508749552804
-0.226101346816806
-0.202326784279131
-0.211166650918947
-0.194918348660820
-0.233825624394218
-0.209017523959967
-0.233058333662776
-0.220801570528090
-0.247171686558648
-0.138274341529816
-0.060819291557891
0.233334258728775
0.535007258239186
0.977810207654357
1.590851019416284
1.957660008568417
2.032103007345857
1.721872882969679
0.931059582933396
-0.175163359265246
-0.855838449425280
-1.624760527311309
-1.818424633757367
-1.786561666344248
-1.559883059434864
-1.349274209537146
-0.984474127768497
-0.802071103150054
-0.556399622264211
-0.485364500488946
-0.402660983103643
-0.349725157406834
-0.296482344132307
-0.277819393664791
-0.245347742478522
-0.241792415786049
-0.204889406895276
-0.195607478536937
-0.160993668721054
-0.150505590073827
-0.131685587780660
-0.106795155161531
-0.096383473658040
-0.081950416820639
-0.052125337654317
-0.067537352615256
-0.037215801045460
-0.033173676651715
-0.006999008597929
0.001038391767442
0.036914554006671
0.056603421287056
0.061924463471817
0.092470460384058
0.122722273804854
0.150443402412447
0.177122479301047
0.196848114858795
0.218298922513861
0.224736337172686
0.268770447339587
0.280120214180692
0.319374154375840
0.337403880840884
0.382687533496145
0.402512185655568
0.447842705645294
0.495852299102105
0.530993363104484
0.585981930472955
0.617994203113174
0.666773374974513
0.707199118282758
0.721485455002897
0.753194129721489
0.745603934425862
0.748218493728098
0.719287700217744
0.730284616381009
0.710071051282598
0.701187046204614
0.666270266606026
0.629213445092248
0.590419490252517
0.563956613988040
0.507363951938926
0.441250683151900
0.386541356944643
0.293289398379777
0.233954350082805
0.188045876936019
0.105252139622075
0.081952728587479
0.007882818516140
-0.026763803199030
-0.082598168431460
-0.108127403911634
-0.127938484515802
-0.130917315500337
-0.128817745871772
-0.128346774871205
-0.145069450125197
-0.136170717798982
-0.145503582676514
-0.160685170111153
-0.161530225188446
-0.156084330406597
-0.158994748792258
-0.151764817322981
-0.158927391674794
-0.166911749735164
-0.169156572695360
-0.162479767771581
-0.167853064940036
-0.152814414532278
-0.147980560332879
-0.159019522953692
-0.159946080577008
-0.142105528371500
-0.139348011773539
-0.135683048707433
-0.150444629244449
-0.151491962294253
-0.150816160667655
-0.148990541284028
-0.140135810649348
-0.125241413329000
-0.135779717531071
-0.141012019587329
-0.154789104724380
-0.168485263542105
-0.166803990745616
-0.164525073180505
-0.165840111340208
-0.161035102280568
-0.140110271595545
-0.134455485576113
-0.137909267198999
-0.131832539501288
-0.140494926066379
-0.158212700466805
-0.158293172914536
-0.155669426546673
-0.157293245520521
-0.153926514373680
-0.156147722093155
-0.152403961619652
-0.155061099494193
-0.150979527134733
-0.154175203706315
-0.149290561909148
-0.165857422296381
-0.167326361583206
-0.166882897192509
-0.185044772433783
-0.194497422375013
-0.188270025989334
-0.193024305239214
-0.187933833446862
-0.192266196874623
-0.187616747045167
-0.191491419113755
-0.188080909389601
-0.171865672101265
-0.160494692195915
-0.192054895065006
-0.185121303279582
-0.193706116669070
-0.200634743075096
-0.211367937953693
-0.191662819161095
-0.192595792372623
-0.154926697473546
-0.135224192861953
-0.104699563573826
-0.061742565643747
-0.034475626978308
0.001494736027187
0.061802006550178
0.128983414535478
0.178777012141388
0.203851954507813
0.216132518593942
0.200210892707726
0.151168490053199
0.108126870560717
0.043973055389386
-0.046083217287137
-0.108107164554852
-0.200388825947083
-0.241707352464432
-0.286601362726511
-0.283152045392188
-0.301561485080241
-0.284565603909306
-0.302291754473574
-0.284639073650828
-0.304089430147570
-0.283770977933576
-0.310323075187718
-0.311675294190108
-0.332400844779761
-0.310070144037478
-0.336775050495980
-0.307823309279388
-0.344339597143147
-0.282265296400169
-0.241326126993175
0.043308022283211
0.245436733913052
0.727023721085533
1.280546061076466
1.725449139376575
1.970928546039111
1.844824989713260
1.078675263767714
0.128223217421815
-0.714655212616724
-1.670693152191600
-1.921204021348861
-2.042781709821271
-1.810006827333276
-1.557542608848105
-1.165366453237102
-0.983877592655344
-0.639956413768745
-0.564921202309183
-0.439689647318989
-0.391350385603499
-0.324305390936012
-0.307497730730009
-0.266676026276824
-0.263786087818109
-0.224910237673696
-0.220745826456128
-0.182535701366215
-0.179754425578741
-0.150369388584173
-0.136897324876243
-0.109312208398598
-0.092580051928145
-0.073984040836995
-0.062852762805950
-0.030350824211253
-0.039046931300118
-0.006613626285155
-0.008287993613628
0.022487766425663
0.024415982834125
0.050104827502406
0.056782066182033
0.090634330583216
0.117756682981314
0.147396030767304
0.174676240319417
0.188584573699493
0.213203579156363
0.253472714076559
0.270502146195218
0.322852522927402
0.345215927736386
0.407227519019546
0.432049700796911
0.487776761971712
0.522925807597672
0.562462945401936
0.611784587840138
0.646479709405956
0.697256817011414
0.723901449654999
0.742365433290372
0.784569926483100
0.778707732923668
0.791414869856224
0.797779031076837
0.798819811543722
0.780837022940906
0.762205439134050
0.719304142387898
0.692453897547891
0.632249897421224
0.600723647632489
0.530637702708968
0.472100091997499
0.417183941459355
0.337297416310679
0.284665315630726
0.204441080963298
0.148595360079482
0.104066239139025
0.049908770626179
0.019390761074276
-0.008504105391890
-0.040129832873632
-0.052694016337488
-0.072686076765091
-0.080627224942384
-0.091022939802940
-0.094195178988186
-0.090353083482977
-0.092016739731688
-0.089100780465758
-0.089348434152496
-0.071721316477766
-0.070818273501745
-0.071083599612437
-0.060692255909141
-0.039416028474292
-0.045268055704460
-0.039662862402448
-0.042992206363055
-0.038696719084142
-0.041134891306623
-0.037617927605511
-0.039324925131512
-0.036636328403027
-0.037360444931728
-0.036061558306149
-0.034491664987940
-0.054887543708955
-0.059535646256971
-0.064737327937002
-0.074500524263934
-0.096472621338049
-0.121284100252668
-0.130829416195363
-0.177335882538742
-0.182995325253623
-0.207132181587557
-0.218353356772637
-0.229150464377422
-0.241518463436313
-0.265724130808267
-0.259101509585819
-0.264593400112520
-0.258824278839075
-0.264064574618337
-0.258519030091644
-0.264355255416831
-0.274764449410728
-0.280174785227526
-0.276311089112767
-0.274773363252884
-0.255855148945143
-0.267361061130769
-0.248779006736052
-0.237258351472175
-0.235667310122049
-0.239831542446409
-0.233334782570831
-0.221730590581282
-0.222222460555479
-0.203997549803536
-0.195002055081708
-0.200950560492728
-0.185921336769558
-0.169045652401820
-0.155043041307598
-0.149497263461803
-0.138322662936208
-0.122792689402375
-0.117829892061327
-0.112444504703961
-0.076139736532927
-0.080720404790983
-0.060263653840203
-0.061370180839727
-0.030100610137796
-0.019163033051304
0.023925612202121
0.051119283126689
0.123691869423362
0.167619314461382
0.207410393104420
0.267161224076457
0.321974729417184
0.370180341213904
0.393523683507093
0.418399052773811
0.404829465349967
0.367087650735884
0.295814357079431
0.229293076478303
0.145473868191391
0.032274452604601
-0.038500020588077
-0.141197567712385
-0.175695827794442
-0.231861441478008
-0.238198381847423
-0.257598583578556
-0.262088678693547
-0.297329369935803
-0.296048533618880
-0.333851650122404
-0.326127299770567
-0.356111358546801
-0.341876177701713
-0.360508471853314
-0.366577797185716
-0.387377117857231
-0.370085639859904
-0.371894746485020
-0.247020549981338
-0.151280143869088
0.230819668134505
0.498834566644619
1.142037307268174
1.686918943816063
2.031765717566841
1.955439674022198
1.553999019650515
0.447003165493652
-0.507927041361322
-1.350316498719975
-2.007026161828254
-2.076962144689247
-1.984843266209401
-1.763794643885308
-1.461541544403396
-1.136229267574286
-0.928941622668529
-0.622629771597018
-0.557346681694946
-0.408707908695106
-0.386865175838066
-0.303764077091372
-0.291020796435568
-0.255233595976381
-0.259398664268659
-0.209628909406647
-0.208801531249831
-0.168438820462752
-0.153101419603833
-0.112636251751472
-0.099547796282382
-0.065143957958551
-0.061269719010315
-0.038356213685375
-0.017873545255438
-0.012684010535579
-0.013597005569189
0.015341874275001
0.014075199953468
0.051129652160957
0.056570864554840
0.093925590302331
0.110197720213961
0.137364907383274
0.168847029517486
0.222626546385382
0.244133488670176
0.275699340974139
0.319919462106606
0.335158103476441
0.384940984667506
0.407784204780026
0.438203833667702
0.497022256393093
0.536438111198607
0.616347682389660
0.650248781205414
0.697814353580063
0.741452505011832
0.775289717104308
0.807491078364819
0.842936469899041
0.883090076726828
0.916507025683273
0.924949081274814
0.927295535885928
0.923742388885809
0.923800849052694
0.893582204210545
0.891111092900340
0.842752094456779
0.807460042609533
0.743709273278038
0.692246495734990
0.612659255857816
0.539585683884671
0.470323422545130
0.365701339183013
0.310487573279791
0.225257596927274
0.173787483327712
0.116512505322102
0.062594894310958
0.036889214028896
-0.024477230885430
-0.027636303786961
-0.045202399033948
-0.053761032763576
-0.053955816556979
-0.069176773819291
-0.089186406623639
-0.089715348316283
-0.088748926696405
-0.102832663917636
-0.102683810683317
-0.100791342802751
-0.100228984312902
-0.098278193165363
-0.097892238443185
-0.095834982944676
-0.095613165563918
-0.093465392832179
-0.093390299898521
-0.091203794433534
-0.090751051498135
-0.072256117022718
-0.085203578444486
-0.088300216158475
-0.085890125566797
-0.075733208383956
-0.083781398458166
-0.084285250644907
-0.080257129840452
-0.096085601374012
-0.108568509126739
-0.102759664531434
-0.105217868922197
-0.101569402639577
-0.103078673212954
-0.100064697898653
-0.101162714042781
-0.098592339761997
-0.099246882084228
-0.097441531876195
-0.096549145524145
-0.105207753905878
-0.114737232392157
-0.127909909271604
-0.142329727269804
-0.121626642024142
-0.113887839448877
-0.135124814904292
-0.133307539222155
-0.132433738054916
-0.133346290469726
-0.147491594131220
-0.146380659477076
-0.127133367063460
-0.138405206390628
-0.146673537554967
-0.146924870594400
-0.143934170871682
-0.165842560572600
-0.171104387678375
-0.169516969331306
-0.169487791135633
-0.169421845888061
-0.168743473351194
-0.169105470948947
-0.168393459015155
-0.168404209213563
-0.170693814449754
-0.187219973469316
-0.183061521971303
-0.187064665826141
-0.182024550118737
-0.171941271738578
-0.161529847864649
-0.143198238440542
-0.125410081976560
-0.130294589027074
-0.109494982574582
-0.086076646628100
-0.063262561735637
-0.029405904721341
0.021529401479928
0.107605312174300
0.133075465756793
0.183112397526945
0.202533530466690
0.182684656837159
0.150725099874057
0.119048813763779
0.067191340345726
0.012092667356851
-0.079691581526897
-0.127980737360214
-0.189081295972673
-0.218108823003282
-0.230118705130454
-0.229143274748526
-0.230520489542501
-0.229703223234594
-0.230387865812370
-0.249287523397481
-0.259536106607041
-0.253790846718359
-0.260067917680112
-0.254296594480781
-0.262089781059149
-0.253370409549849
-0.273979435660941
-0.272512662083104
-0.271796454038552
-0.122018467070894
0.044658177246093
0.279678370907002
0.795574372075674
1.180499622464968
1.767563611525228
2.023862261329281
1.826243399676261
1.222260515352168
0.512995686372563
-0.648310591850012
-1.186887177971885
-1.617718920917004
-1.740099668994968
-1.618447794496587
-1.355357132034850
-1.194023574144114
-0.885847236023237
-0.696123354502199
-0.520313240945857
-0.381657168357588
-0.326278093441973
-0.255957660312407
-0.226268942692693
-0.198488311700214
-0.191499974862337
-0.168416330124002
-0.155395362815546
-0.147784037157577
-0.135213581756987
-0.113526244262816
-0.115116860050402
-0.089431451556513
-0.072902878137163
-0.067407627600082
-0.044525011159750
-0.036508319804573
-0.012234581503967
-0.004142629279976
0.018962015081608
0.041168598941422
0.043669427694905
0.073295002340069
0.090957642052167
0.118262624039378
0.124849680879373
0.174866026859467
0.195112394908238
0.208108306110938
0.242940997490920
0.266411212800330
0.303646243799936
0.355734805409226
0.403320132336305
0.449936208557107
0.468124381930922
0.511800157788583
0.531818328994671
0.584420815207715
0.638261787677494
0.679580118181489
0.728949096457734
0.763264332388043
0.818813785998621
0.827811457231732
0.852544396446666
0.841556096314163
0.852521967788589
0.838526029348356
0.826158395484727
0.795875680748088
0.782099253530458
0.740881959180409
0.694850642362114
0.657986769284604
0.580068504445085
0.539561661053800
0.447478385178680
0.370341427942208
0.293977262816935
0.209724967852958
0.171692331384695
0.096334692259127
0.066131451810930
0.013186681874837
-0.024854545172430
-0.048321270613153
-0.089848960294123
-0.095072163631780
-0.094527351083886
-0.119421253188519
-0.109293542534686
-0.118254258582069
-0.123265606654390
-0.135958389809078
-0.149426573868037
-0.145831474123416
-0.119077983607699
-0.123003977087392
-0.142564844526138
-0.139050532435698
-0.140517858420685
-0.156174807808898
-0.144073596226793
-0.132764326195264
-0.130836494240408
-0.106627093804493
-0.102856572469508
-0.104060626676618
-0.124042360395375
-0.125971774773993
-0.121071183346136
-0.129112444878728
-0.126094487656699
-0.115807990588627
-0.125351095091050
-0.134267436471272
-0.131630820341832
-0.130749296635673
-0.129679984882445
-0.127771058816385
-0.128114923353550
-0.123582842636599
-0.139944477276438
-0.150856508438780
-0.149190133863983
-0.165860813292141
-0.160665802877024
-0.162757647387811
-0.159275243280835
-0.160377975712983
-0.157720410282660
-0.158886057471911
-0.181433308339908
-0.161822287991751
-0.153165978544132
-0.154809950522596
-0.156909866117044
-0.180879531033114
-0.175143541467057
-0.178275317564208
-0.174523184323864
-0.176465614222258
-0.173868111189946
-0.174683576423400
-0.173716745040883
-0.171877858447395
-0.183296325010396
-0.184977218383126
-0.168618091678413
-0.173098243441668
-0.171150800516468
-0.150608212123023
-0.156987669054773
-0.175085071732925
-0.169126963481857
-0.191111047081425
-0.183123578448661
-0.176955176513364
-0.163710198937130
-0.149545408525461
-0.137959326215079
-0.127506337333914
-0.102986499565345
-0.069758531829772
-0.022795780885998
0.033395453098736
0.092811086471706
0.136897510817699
0.176394395558500
0.182302714895285
0.175402860910460
0.140036037335701
0.074546200772197
0.025627704843927
-0.035095836392967
-0.130878766341032
-0.162244344263275
-0.244721954514618
-0.249551365838942
-0.276417578587809
-0.261499898106014
-0.276163751201882
-0.261975240549713
-0.275819930245081
-0.266207891270438
-0.304831445326172
-0.285733054939150
-0.304467121933934
-0.294984562137527
-0.326615521192260
-0.300265002289006
-0.328353791567685
-0.300699517706378
-0.311548403304473
-0.137788555533736
-0.045659023989799
0.341880196261079
0.652699210659328
1.200379124019514
1.732837581548119
1.947751434901195
1.727526332409635
1.343580360959755
0.357995167896025
-0.566058930126282
-1.127732195045250
-1.669540515195627
-1.699982941796144
-1.591270911779150
-1.381279540109207
-1.171869457446252
-0.866622627140024
-0.723606013054883
-0.485029728585611
-0.444598355936620
-0.334997874042690
-0.302719205090697
-0.261062211850566
-0.259340055980327
-0.216490001571279
-0.219290773682097
-0.181639384265301
-0.174409024011858
-0.138484757993752
-0.131710781616974
-0.106390320994055
-0.082809387693685
-0.066733411202725
-0.051396762798624
-0.034277262324486
-0.020377537603065
0.010966350430843
0.019120383083841
0.043442687940398
0.048190542821556
0.078546561660821
0.075426541913424
0.095453173160938
0.113682920566792
0.135623368563888
0.146013426765950
0.174512924619519
0.208482592820070
0.236291958261533
0.252669842888877
0.306913016284690
0.324730162371136
0.364085233175925
0.399591361865036
0.443675220030124
0.475415373906874
0.542724311947441
0.582957286138279
0.617128649844064
0.683261936396663
0.729179257012346
0.760052875142986
0.796882692332304
0.811261946536119
0.843136685529627
0.848700957756637
0.862836673592250
0.865610845609187
0.863244207670450
0.852484387639363
0.823642880244918
0.768736099518589
0.741523199737106
0.686512592405091
0.618026780600090
0.541163685791744
0.449261197887968
0.404691302799249
0.318423491382279
0.273729174147168
0.193626765281324
0.145553662859681
0.107408400718819
0.045873407894599
0.018706414180821
-0.032395505287077
-0.049962707447004
-0.075971945363200
-0.093439165598105
-0.117588682982773
-0.118637456033133
-0.130374326350908
-0.139197419892949
-0.154641346326670
-0.147875133909503
-0.167875766105208
-0.157868145699321
-0.166596342028670
-0.185116628201905
-0.173111931140740
-0.151835188340200
-0.154628045145257
-0.159060348936967
-0.180874073483231
-0.170548243430076
-0.175467402756707
-0.169950270103885
-0.158635855929600
-0.136687260698192
-0.148537974389543
-0.125518882420818
-0.130688852472497
-0.137823655614822
-0.138020817937365
-0.134065513486516
-0.136041946179023
-0.131437200172008
-0.133796829704519
-0.129060916048912
-0.131560781844621
-0.126817607649267
-0.129390801468042
-0.124672908742623
-0.127306004870605
-0.122610522802200
-0.125317779825787
-0.120615159269539
-0.123443679940811
-0.118653616390637
-0.121748804736431
-0.116537671714373
-0.121243741943102
-0.138517665688688
-0.156730264054550
-0.156637646664161
-0.157782499055690
-0.154582148089745
-0.156545246467061
-0.153079962427001
-0.155132175230820
-0.152660157461960
-0.178317321690114
-0.175540057472364
-0.178972975612289
-0.190312192605534
-0.194526284125879
-0.189069247897025
-0.177823566328709
-0.170959523617191
-0.185651302237406
-0.190470804546934
-0.190771052370904
-0.188835831524543
-0.190812350153787
-0.187941837123458
-0.191223789185901
-0.182726535489466
-0.166626563380043
-0.145635694770759
-0.143719906104978
-0.121348795604396
-0.106641368825696
-0.079603442412499
-0.044248595905995
-0.015985373493168
0.038193087715005
0.093834809731233
0.155734628549544
0.175024489728163
0.188870925562274
0.189988819385055
0.149554779645274
0.101530150742509
0.054616301008119
-0.062176485499144
-0.106386521900593
-0.187540204213399
-0.243624386174194
-0.268126772499864
-0.273334178120269
-0.270634491454353
-0.272574628995799
-0.272370586972195
-0.296413699933741
-0.299975170607985
-0.316588013386862
-0.313313213352864
-0.316755097064706
-0.314297994987351
-0.317864990011863
-0.314207635040231
-0.332530934252966
-0.340699707585283
-0.298218938378356
-0.209022470199927
-0.012839142539307
0.290612409220697
0.595909290468609
1.249992772955009
1.663672877619885
1.969203904758790
1.921114710271067
1.360523925258277
0.321815437438865
-0.394490878450902
-1.306262020809424
-1.695213061202138
-1.821325721896800
-1.680440660883610
-1.470842271464798
-1.144498849507042
-0.941598517952707
-0.672402609198615
-0.508481728632836
-0.449470351065076
-0.332807979830087
-0.305786258635753
-0.247154330804828
-0.214812709998166
-0.197714862224526
-0.170763044542880
-0.157465451422641
-0.140932979494502
-0.124855081865013
-0.097172849407585
-0.071054645742978
-0.057180655188344
-0.037375459673500
-0.010748321738304
-0.011296153163906
0.019971195132239
0.026763130065685
0.056491156076133
0.077698789125667
0.111824253522145
0.120957815416052
0.132833970186750
0.146145256025585
0.151292679360845
0.168065007712518
0.177915748960991
0.191147656662853
0.215986947714416
0.234860871516936
0.263069147843547
0.298715712210098
0.320239128604009
0.370696448836359
0.388427635266938
0.451905088384643
0.491139152534840
0.545598491462531
0.575716989647075
0.629885322059379
0.641836993500298
0.698166322158318
0.759065505934676
0.767366783219870
0.809512850488025
0.817803343377946
0.818905095919784
0.817117339090847
0.821127015391615
0.808526961097028
0.803417083133374
0.773460755400199
0.746605242397122
0.709526141820897
0.650493082258190
0.603254795275656
0.529549680544345
0.485547045323665
0.401363838581686
0.335416389925747
0.271101300757802
0.177988777278946
0.158845191914878
0.082520125951500
0.060811196448505
0.025331593419620
-0.010018722607251
-0.015828116882243
-0.039396630947323
-0.049879043807837
-0.055770658128352
-0.073329575651782
-0.086975562637824
-0.102935706752140
-0.120696092370050
-0.131796221757938
-0.153075014264586
-0.146944310847763
-0.148895020074977
-0.143653927604581
-0.145592403692843
-0.139823311932712
-0.143955607728069
-0.146953114991699
-0.136991368928501
-0.134865833610950
-0.135755050198586
-0.127175606923898
-0.104862412209134
-0.104705216950255
-0.102988625164029
-0.101224534526172
-0.100540290923162
-0.097891317224161
-0.099023782807037
-0.119084824018286
-0.120988457963219
-0.116783019417558
-0.119295431610323
-0.109736328644513
-0.088942467014621
-0.087386054964883
-0.088173569711977
-0.082741216204596
-0.094863877066257
-0.109919179676830
-0.107055962131014
-0.104743894953734
-0.092753935364533
-0.086583930166446
-0.084442221104399
-0.105489762032307
-0.098590462230498
-0.116893829221199
-0.114114978602139
-0.114320193110513
-0.113247622203775
-0.110138863485686
-0.125743894779173
-0.137423245805440
-0.145755143879031
-0.152276909805997
-0.148262989440990
-0.147766491448808
-0.161098978704159
-0.175799261829606
-0.168637297699802
-0.172200047865206
-0.168650838672407
-0.168827150160165
-0.177856372095014
-0.181732991696836
-0.162401080759633
-0.170262127679186
-0.162859021730678
-0.168604421541729
-0.162033648678128
-0.168171744607732
-0.142224960590610
-0.138906946262637
-0.137589060969112
-0.138787989760080
-0.136383784481439
-0.121587529316686
-0.103433000855586
-0.068661591757854
-0.046515994949447
0.023208045995263
0.091817706964906
0.140427232714222
0.206744251941187
0.214156921929147
0.215679720576448
0.175490858705478
0.136192087129199
0.063503787640024
0.014103294652323
-0.085648804741157
-0.132757796355204
-0.214568534155413
-0.249451252465520
-0.260736842232001
-0.271191035614689
-0.288562672151655
-0.274491613640869
-0.287726193261692
-0.274661559290568
-0.304240251005471
-0.290128525604878
-0.305750623717320
-0.289186438870215
-0.307055443137216
-0.289114003588989
-0.333190295814574
-0.314628332314128
-0.347954134337599
-0.220505210166052
-0.145986835005929
0.189697316203280
0.489101190470959
0.956761933626249
1.598883298867150
1.929204838272490
1.947405177440479
1.572499557140048
0.728611236129573
-0.408410428997322
-1.084580202929031
-1.818230218005975
-1.993542640571751
-1.909232588146267
-1.640843276551760
-1.396336996766801
-1.007296327713145
-0.828715726114514
-0.582517214771035
-0.500149326277630
-0.393158796466217
-0.351473123531995
-0.303833039024789
-0.293154860603203
-0.264851966250912
-0.257933306471957
-0.214996417046104
-0.204466997903574
-0.160820313679181
-0.152101712584306
-0.138706855912524
-0.134007521005297
-0.131407197051601
-0.115100285393582
-0.087827147094464
-0.071584794204553
-0.030391434767927
-0.025638787340004
0.013070308415000
0.002172021709950
0.042103232490190
0.042022351716835
0.048598787699803
0.058143138130706
0.081185977687841
0.095257983267537
0.133207037792048
0.147049651721493
0.206223757919501
0.215339011598112
0.248479167405342
0.262668118932371
0.326333936584463
0.347782980110102
0.410613205372562
0.437099821933865
0.486203243442807
0.529082608687033
0.568327618516968
0.617796573840755
0.653372452307048
0.664149878185815
0.699937822799931
0.703892937998080
0.731515912480785
0.741126868235380
0.763782055469066
0.776781001245415
0.783850495152551
0.755682566084220
0.724998814539720
0.684996114216127
0.658520690011932
0.602848525990830
0.567138181251876
0.505384299780919
0.428483137727394
0.383695995436670
0.297723564334477
0.237167677789932
0.174432278983008
0.102504894892884
0.082413866100649
-0.003495706671495
-0.021834397976264
-0.063561813479170
-0.087896867880109
-0.109660560092385
-0.119197812905932
-0.141116547300164
-0.150037824563709
-0.161253397388569
-0.165945638157830
-0.165330252199731
-0.161866799331767
-0.164243837313447
-0.156350437797928
-0.143511617086355
-0.141097678103878
-0.142092145586738
-0.138644410745518
-0.140226847665933
-0.136532278740436
-0.138293965936250
-0.134660448083653
-0.136283904261280
-0.133137293542332
-0.133877414213834
-0.133045555907456
-0.118321281695191
-0.101346076548585
-0.107796167352776
-0.102202616054963
-0.099991884442917
-0.080840980217686
-0.089137300721446
-0.080726230035686
-0.086571140426581
-0.088175485188413
-0.106297658089816
-0.090287794997604
-0.119443315980369
-0.110876515476859
-0.096693207157625
-0.094056871794731
-0.098536806798262
-0.090158357884938
-0.112150622783619
-0.118278671591791
-0.122885419668007
-0.134255595766805
-0.135751496986611
-0.132137031184895
-0.135750413236081
-0.130616406711421
-0.135927252503962
-0.128240920104859
-0.143942406488408
-0.157997710899193
-0.156425499842260
-0.161600031623935
-0.164799055367591
-0.149702988981772
-0.167511546878841
-0.168407468395927
-0.190558135478286
-0.196409103179903
-0.203383749082682
-0.204151644205862
-0.196999213003039
-0.197429703374714
-0.198827648742735
-0.196804949505163
-0.199850562610208
-0.195844483084111
-0.176262959212257
-0.171917881266736
-0.175881247663095
-0.173019256073219
-0.174214057810508
-0.153596125491874
-0.138928225383787
-0.114924059900065
-0.081756896285248
-0.045874971297802
-0.008900788006805
0.048944012477529
0.115443721120033
0.156226953982484
0.195806961133491
0.222033994065974
0.203068858175378
0.161630275698380
0.124502323957193
0.054901871712840
-0.027890878597063
-0.105814448544187
-0.198595416024748
-0.233909412069824
-0.299763305484188
-0.283523306330747
-0.300902902277092
-0.284658957906519
-0.301997276975226
-0.285755225512009
-0.303214318165441
-0.289161601656466
-0.325148700614672
-0.327194868190279
-0.350901049164656
-0.337635848423783
-0.375170046696270
-0.341498972873506
-0.393832736018190
-0.360449561261624
-0.322103974872242
-0.084286716124084
0.064715826474274
0.553761611334218
0.926302414469470
1.508331229612226
1.934015969244546
1.920459611501053
1.310990750630535
0.670666246099109
-0.493511541677163
-1.457995067865840
-1.880725271410085
-2.195781136125246
-2.069989832006506
-1.778114613529558
-1.484738253959808
-1.205459379889054
-0.827776200301477
-0.735422936419746
-0.545892215480653
-0.510870174549571
-0.398815974956390
-0.371868797066087
-0.323457592486303
-0.306071076923007
-0.265799673639158
-0.264325891235020
-0.225237863366561
-0.242613151555752
-0.190974208192801
-0.190261236559743
-0.153040131308666
-0.130204532643930
-0.100125872433817
-0.080135650042058
-0.063044817087663
-0.054510085321636
-0.035103223045328
-0.040972944563121
-0.004454260183206
0.000698236265807
0.036553636579397
0.038431288185165
0.075694820725449
0.094266342597401
0.110875747638585
0.144677901155245
0.180334824706162
0.199754734829055
0.248416065350712
0.289618914239352
0.324850797744494
0.357756489450543
0.429003302664260
0.461173194070791
0.537600939904661
0.578005675780579
0.652134479450374
0.697180996431303
0.746599801040468
0.818454367925914
0.859686402896485
0.923576536365806
0.972528692930842
0.978882779101836
1.015518724039417
1.013523570054775
1.017361886885931
0.993515815978947
0.978460222806350
0.940088812738261
0.904090370760708
0.844589610808668
0.803136688222862
0.719828621742131
0.656476510242281
0.579004690594509
0.503498142433168
0.445905329594521
0.346144939443423
0.304330610767890
0.246966762485945
0.177951918847557
0.150468064766229
0.112611350493212
0.084958046504731
0.056523131883251
0.025502804227716
0.012632021244218
-0.018113856978327
-0.046965247842270
-0.052820276247596
-0.052186227647224
-0.049586467672097
-0.050830797468680
-0.046330332663402
-0.058032071623757
-0.064445323135040
-0.061717940834974
-0.061516413003620
-0.060094395635872
-0.059454639544330
-0.058175490384814
-0.057649003410808
-0.056087756241919
-0.056191470916765
-0.053315853848779
-0.058586058263913
-0.079672645489969
-0.075804589916110
-0.079351920639502
-0.093978741448530
-0.088744116754936
-0.112656106484534
-0.102510288079121
-0.109359192110289
-0.115711439908354
-0.110799307661737
-0.113120393949694
-0.110001201754570
-0.111253698558951
-0.109023255164709
-0.109540334876768
-0.108199333405713
-0.107492219018914
-0.120029416977408
-0.124872404181292
-0.121896303825302
-0.122936606296859
-0.121405677600709
-0.121354044542171
-0.121243691591124
-0.118763640546457
-0.129102435222284
-0.147939449563785
-0.142386413428960
-0.144985474237121
-0.155128380311169
-0.162895474158468
-0.157245312601778
-0.162250655600208
-0.155223279116504
-0.151737709093902
-0.156045513380284
-0.141742050665936
-0.158246791145829
-0.158638505866157
-0.158332420819067
-0.158638375463767
-0.158166830716754
-0.158727188693669
-0.158135585779961
-0.158914513890467
-0.158208439585568
-0.159225296076647
-0.158373535697098
-0.159632245167895
-0.158842621428579
-0.148066900550845
-0.138416350304379
-0.123983091327695
-0.079845572013860
-0.057753353277274
-0.011963844456509
0.025349307091927
0.107512704769800
0.152321705042066
0.163233389247191
0.205545222463541
0.188127580939958
0.177121372607164
0.134847860619773
0.088789635004271
0.011160480743149
-0.042220642794404
-0.142185088105747
-0.183166535135532
-0.227045828532143
-0.244688712396231
-0.251619404679562
-0.244714647268918
-0.252141485280497
-0.248917806841221
-0.281786325354794
-0.268400459161610
-0.282333677573833
-0.276217906472959
-0.294439008867630
-0.285356235295833
-0.306544216122847
-0.307463022586987
-0.337910608090584
-0.283578013856766
-0.256314947635487
-0.042946237143830
0.109256371922854
0.521070672229029
1.065103957292327
1.516952093411226
2.028194293133802
2.109645784498460
1.630372145165462
0.868668580372444
0.004391116394362
-1.119444044553568
-1.497151599613860
-1.831507240213716
-1.794155808276886
-1.615130005553553
-1.311079764630202
-1.135833070941592
-0.803251162281924
-0.658664032065896
-0.477688290728017
-0.410434442489969
-0.333413129422786
-0.285132860562076
-0.234669618378945
-0.233885795623329
-0.192322331784350
-0.190863683449551
-0.162510707456833
-0.159242965753978
-0.122418412269008
-0.116135618183861
-0.077770857823492
-0.063106714815935
-0.037687155597543
-0.031934072550901
-0.007750894858974
-0.001224484886755
0.003000760729477
0.008849885888783
0.035229121010933
0.040575683607257
0.069764360960537
0.094569758427463
0.108346032289489
0.116502818800706
0.137406149420094
0.168990289599172
0.182640931709902
0.234615298360139
0.269038158582553
0.299051850231942
0.363890365213043
0.389020707522782
0.450081063859630
0.475925491500124
0.517449900569398
0.542641603882187
0.606363734419234
0.658483594342621
0.689393319826898
0.758330447939991
0.803258140515694
0.824352392500120
0.870553168002426
0.877922831388843
0.906488587091120
0.907082769383847
0.914807624608061
0.902868546986082
0.891266328361104
0.867179937360158
0.851429929540242
0.789861985245891
0.753060952246398
0.673956250238985
0.579510578129578
0.527739332590733
0.434042670150070
0.362106330446419
0.305474454439617
0.234829384450839
0.197490834169488
0.137837214106621
0.117695139127538
0.052545840422137
0.013183813258637
-0.010586603712990
-0.036359851093735
-0.066528988993530
-0.075429170736235
-0.089978747310218
-0.079916636135066
-0.085532700534104
-0.076304883133346
-0.082043182972090
-0.071844047124542
-0.082519764831973
-0.096405039623994
-0.098182377409014
-0.091977187722033
-0.095026071541433
-0.088291535100891
-0.091688997237223
-0.084783509645205
-0.088348199058453
-0.081378205134098
-0.085030312721971
-0.078071526291527
-0.081702863697331
-0.074961419726985
-0.078013937625784
-0.084437712031631
-0.093845174421906
-0.083700333670362
-0.090817316684572
-0.079295283776711
-0.096314383841573
-0.106371608819250
-0.107820298252428
-0.117940301259198
-0.121830129259699
-0.115282989759557
-0.119225768095008
-0.112207934683620
-0.116813389553271
-0.109035376200172
-0.114881946539588
-0.104773022085344
-0.121009122373635
-0.132240173765425
-0.132571181973456
-0.127574675910173
-0.143483794428366
-0.144621023527458
-0.168367833501043
-0.166143174598535
-0.166743195531476
-0.168893184051824
-0.185959397832110
-0.167378095570066
-0.179031284338660
-0.176328819798428
-0.178591903394789
-0.174187175637124
-0.176936980569456
-0.172152647769904
-0.158272905228380
-0.157763627048237
-0.173328804854585
-0.178000044294338
-0.201112826330986
-0.191965770389688
-0.189854307289285
-0.160808270197024
-0.175250693576787
-0.160224901396113
-0.193384956330898
-0.186766113688797
-0.198516375025519
-0.162152765383069
-0.153104430754134
-0.135070852793960
-0.123558254891690
-0.085274076365441
-0.069182680649414
-0.017481630068761
0.062289457251446
0.109654883171015
0.142403409030617
0.172674525600325
0.174808226079834
0.137438206861416
0.091671383651648
0.038350965229985
-0.024542322646617
-0.092686984374758
-0.156852988026296
-0.175407821219342
-0.224121732147245
-0.221766418762292
-0.230621697410458
-0.220849873873371
-0.246976149317070
-0.236056949063331
-0.248838752787901
-0.259506825772139
-0.273706763271593
-0.259688517274024
-0.274669631869962
-0.258135130244185
-0.284891313533053
-0.277769293690639
-0.292148338453121
-0.269657440498190
-0.221010942371745
-0.041331805876662
0.118797598745696
0.600464806370791
0.937849643108070
1.536432887961626
1.935291455080614
1.931962758117865
1.466668529505590
0.893992160601021
-0.224120666921458
-0.934918392222910
-1.397454542204842
-1.691913353048850
-1.620462226733910
-1.432589858906504
-1.245598892796686
-1.005045067082205
-0.751155816112370
-0.606701385486419
-0.411181471699873
-0.371602190554701
-0.285787554928856
-0.253216852612802
-0.220682514853661
-0.200629345527045
-0.163647910766892
-0.158832215623571
-0.139151644078009
-0.151097423829807
-0.118040389304553
-0.117251109898804
-0.086146971391996
-0.070890663075145
-0.045220699544500
-0.044843553135091
-0.026526658702128
-0.033074013781562
-0.014852817037540
-0.000155449622287
0.029826234362307
0.043320247182399
0.076148161710051
0.080456757472709
0.116160294557674
0.130768024058267
0.158130599606083
0.183987416802717
0.198668274811551
0.218910365753711
0.251171074502786
0.272549936538320
0.324668316156670
0.354089068729302
0.390837492283111
0.426073920551011
0.480366044894607
0.501451190500279
0.570691007893666
0.600860247579617
0.647440691970005
0.694711285493064
0.732326770485827
0.779862842240303
0.793681997448255
0.800884186053356
0.821642407650270
0.826104225771612
0.823726872173593
0.829253135101336
0.803463034473275
0.785423022535619
0.752019169744254
0.698532605060381
0.674377984972812
0.584002926552615
0.527337011038766
0.452117014633461
0.377424595924900
0.329460101579571
0.234693254422771
0.219107264874347
0.146121362127299
0.092891481455540
0.052762846659252
0.003366136932251
-0.021335159189964
-0.040152712380252
-0.051511785842043
-0.058220016041355
-0.090999841271242
-0.082644776477954
-0.096935312449836
-0.122532169013999
-0.123150135834750
-0.116789558584930
-0.125848795030232
-0.118570738085476
-0.121474400567216
-0.130514906069461
-0.124356160668006
-0.124182315514663
-0.104964102145954
-0.103426015240340
-0.100891440367820
-0.098848966600782
-0.099886034280161
-0.113717806731185
-0.108927446093858
-0.109424820105010
-0.105277643912634
-0.105944348928328
-0.100932841333878
-0.104748251653998
-0.113096261586249
-0.095284077014264
-0.096737203911469
-0.093334141682425
-0.092529310745011
-0.090584274200925
-0.088077609277592
-0.106622430368804
-0.112814798643828
-0.107570991772509
-0.108651853427320
-0.104727703422551
-0.105371032158031
-0.101245808337284
-0.109908068017990
-0.126934800959109
-0.127706746100152
-0.136747478430578
-0.138691048645099
-0.134214038123867
-0.135759315791081
-0.131333454647667
-0.133324726398128
-0.127710008396226
-0.136307168490636
-0.145323624268008
-0.142826133422325
-0.141893164992441
-0.140518306733291
-0.139730342624104
-0.137201048029510
-0.156974048056847
-0.162164413185644
-0.164568174647379
-0.179335626986784
-0.171951868660245
-0.176103920251212
-0.170408838933766
-0.174004414967625
-0.168562281411773
-0.172306576734320
-0.166524834060627
-0.171306983601425
-0.161923240514139
-0.151282158187921
-0.146945759672364
-0.151960149158510
-0.131565942585348
-0.120432449724158
-0.110412181944385
-0.087843540047142
-0.053550829081619
0.017331541555337
0.095477427747297
0.147382272479082
0.185434524354532
0.190545097986649
0.193095810764634
0.148212236843655
0.087997336640135
0.036598760999717
-0.030025577058927
-0.128556199047267
-0.158110821948155
-0.218278763476838
-0.248911012623202
-0.266182471664022
-0.253426502733566
-0.273333108736063
-0.273000640670238
-0.276716542050028
-0.284492937690165
-0.306949757960288
-0.291752718945633
-0.304908213504306
-0.296365989685977
-0.325707140801866
-0.303800525547287
-0.326239670155305
-0.302323426048255
-0.318821126783106
-0.154176618164759
-0.077307650994106
0.269357927120853
0.627455307944175
1.090042973576040
1.723078571158783
1.999682206392335
1.883037696088703
1.498344376031159
0.657913169852843
-0.425052812953575
-0.998557048370561
-1.619638929349616
-1.729175693245066
-1.631521499794157
-1.412973962023699
-1.223269283506836
-0.896003471025531
-0.746771682647587
-0.519981300301448
-0.450628654642457
-0.368268652797112
-0.314965719438368
-0.279245309551761
-0.258065860687701
-0.223804609444722
-0.218446678665179
-0.177698556003072
-0.178786869832714
-0.147024344443720
-0.146804067235891
-0.130017686331074
-0.116653752028814
-0.099092389812477
-0.097870063950451
-0.082340263302865
-0.072426302468872
-0.048918194743362
-0.041853182779937
-0.011506983775392
-0.018219792166287
0.017676429348608
0.028638832206423
0.051498833125457
0.072994546749129
0.089929108989731
0.128031036287420
0.157428415285373
0.185440492188252
0.212651903687778
0.223896697349126
0.263652170744050
0.277934065923170
0.327849337593126
0.348738860542721
0.388652562114413
0.415863881068493
0.446832387607820
0.489409854042220
0.523862400209406
0.582451114319359
0.641099134726397
0.655192557847770
0.695285036039559
0.714758777172155
0.726558095027393
0.735617308719598
0.743291622006606
0.737700405622906
0.745352554467536
0.736828571609882
0.728199551120563
0.678150910780732
0.645757161939152
0.596615301110421
0.549880177147261
0.493315720746191
0.415190497586198
0.365832224075750
0.296218049395500
0.246635897862533
0.185567120203668
0.123206946056651
0.096501727256580
0.037999782026159
0.011670537980550
-0.035634407632212
-0.059114129054320
-0.076955971240203
-0.087150199757411
-0.108117281296920
-0.110521185771870
-0.122519152826490
-0.127387231626982
-0.150737534730460
-0.156798664629502
-0.156920443233112
-0.172698347107406
-0.180727047889661
-0.174298673725525
-0.171869604749729
-0.143148954694344
-0.148736536243464
-0.140888606115319
-0.144682051939724
-0.138076020121091
-0.140764793550241
-0.135966781018781
-0.131741731396463
-0.112736332785057
-0.119385667945975
-0.110755097541210
-0.125997636745822
-0.107937290318916
-0.112934359645713
-0.104948664723740
-0.110286504244613
-0.101490830593291
-0.110325176315668
-0.117384083194442
-0.120583429283423
-0.113898513415126
-0.118475207634096
-0.110699330111545
-0.116772740506091
-0.106361906747040
-0.123330031953763
-0.133085112001929
-0.143314171088204
-0.133009606035458
-0.131146110312032
-0.128860427844744
-0.129200157789638
-0.128914552540397
-0.146249312485027
-0.139281426211240
-0.144029194728244
-0.137014840511808
-0.142756017740213
-0.133428827553438
-0.154789138777088
-0.161766789243095
-0.161621294895139
-0.159109766137708
-0.176946238392983
-0.173235986329558
-0.176471959557345
-0.171317473533521
-0.175447953361072
-0.169593784193183
-0.174611038667297
-0.167787248215830
-0.174334618929788
-0.164973132975265
-0.194367289755741
-0.178127733988540
-0.167628410756005
-0.167547663092683
-0.169025468389137
-0.165452331138176
-0.169970508290378
-0.155194480558215
-0.149806818466018
-0.130927996909427
-0.111745622910968
-0.082444968501953
-0.050321051742790
0.008799360827179
0.090375112041376
0.125510747831683
0.171320845583303
0.191707914117846
0.175273305047677
0.147186500766596
0.096912898485584
0.032410686531416
-0.051804993477696
-0.102722227897833
-0.214134661786842
-0.231872732080835
-0.284939881116819
-0.280900463448219
-0.294255707167062
-0.278760617858304
-0.313763374503743
-0.306642059484671
-0.317684457935785
-0.318954947014037
-0.328909455719246
-0.300437883930372
-0.324939043864857
-0.299476132891988
-0.333158198134465
-0.316888496428313
-0.360206951032170
-0.333899534988125
-0.285895277635016
-0.070761228747186
0.056054363887250
0.526677170625757
0.898469103215990
1.472208172070445
1.970359768988041
2.038043629048206
1.602612205767812
1.033134593528602
-0.071295206321212
-1.006028556386444
-1.466780116068797
-1.857140491338102
-1.786353627372409
-1.559832228323465
-1.312378322194047
-1.068804586081400
-0.739142954559329
-0.645290150489882
-0.471828611789333
-0.437889303961847
-0.363365499986529
-0.341150514083112
-0.289443701854722
-0.274155253297550
-0.241315679517619
-0.245539378195028
-0.199097157736838
-0.209917125875467
-0.178271363344932
-0.185498089452597
-0.172744966694508
-0.164799819777414
-0.138278639147764
-0.132969550035464
-0.127501184938461
-0.122135740280000
-0.096294872512451
-0.091273203168204
-0.030930886165583
-0.016979824912942
0.018710949725500
0.041468641158439
0.067324794853907
0.081157797137017
0.090958146511216
0.106322831260320
0.138081609644781
0.175919417262307
0.207371839043108
0.236202859808002
0.282287627643681
0.312858103543946
0.373187078523791
0.389697442610752
0.444511225436579
0.487727923754110
0.544718617694104
0.584332104536023
0.616688600595484
0.641368719022631
0.693466403597525
0.701666676930378
0.736014326935501
0.748801742317656
0.763547357772714
0.756500169375156
0.762439668920107
0.757876274749538
0.752861303105514
0.713587719529675
0.713738293156201
0.672131799551890
0.633924732736455
0.563629581035490
0.511837230193159
0.433076818330548
0.362625019205499
0.326518901415985
0.253053421282071
0.221115219893534
0.161136783932055
0.104148462902357
